Sample Rate:	1000.000000
Time (s)	ECG	GSC
0.000000	0.000466	0.000000
0.001000	0.002221	0.000001
0.002000	0.005331	0.000003
0.003000	0.009104	0.000006
0.004000	0.012809	0.000010
0.005000	0.015983	0.000015
0.006000	0.018522	0.000021
0.007000	0.020535	0.000028
0.008000	0.022236	0.000035
0.009000	0.023817	0.000044
0.010000	0.025262	0.000053
0.011000	0.026295	0.000064
0.012000	0.026576	0.000075
0.013000	0.026079	0.000088
0.014000	0.025096	0.000101
0.015000	0.023933	0.000115
0.016000	0.022820	0.000130
0.017000	0.021929	0.000145
0.018000	0.021260	0.000162
0.019000	0.020724	0.000179
0.020000	0.020351	0.000198
0.021000	0.020173	0.000217
0.022000	0.020104	0.000237
0.023000	0.020055	0.000257
0.024000	0.020063	0.000279
0.025000	0.020218	0.000301
0.026000	0.020520	0.000324
0.027000	0.020938	0.000348
0.028000	0.021461	0.000373
0.029000	0.021951	0.000398
0.030000	0.022234	0.000425
0.031000	0.022327	0.000452
0.032000	0.022339	0.000479
0.033000	0.022300	0.000508
0.034000	0.022208	0.000537
0.035000	0.022107	0.000567
0.036000	0.022066	0.000597
0.037000	0.022107	0.000628
0.038000	0.022222	0.000660
0.039000	0.022425	0.000693
0.040000	0.022612	0.000726
0.041000	0.022598	0.000760
0.042000	0.022375	0.000795
0.043000	0.022052	0.000830
0.044000	0.021727	0.000866
0.045000	0.021552	0.000903
0.046000	0.021654	0.000940
0.047000	0.021969	0.000978
0.048000	0.022317	0.001017
0.049000	0.022639	0.001056
0.050000	0.022921	0.001096
0.051000	0.023081	0.001136
0.052000	0.023050	0.001177
0.053000	0.022782	0.001218
0.054000	0.022295	0.001260
0.055000	0.021710	0.001303
0.056000	0.021178	0.001346
0.057000	0.020849	0.001390
0.058000	0.020843	0.001435
0.059000	0.021091	0.001480
0.060000	0.021332	0.001525
0.061000	0.021399	0.001571
0.062000	0.021351	0.001618
0.063000	0.021285	0.001665
0.064000	0.021238	0.001712
0.065000	0.021267	0.001760
0.066000	0.021401	0.001809
0.067000	0.021628	0.001858
0.068000	0.022151	0.001908
0.069000	0.023258	0.001958
0.070000	0.024640	0.002008
0.071000	0.025503	0.002059
0.072000	0.025521	0.002111
0.073000	0.025087	0.002163
0.074000	0.024632	0.002215
0.075000	0.024138	0.002268
0.076000	0.023426	0.002321
0.077000	0.022535	0.002375
0.078000	0.021622	0.002429
0.079000	0.020750	0.002484
0.080000	0.019909	0.002539
0.081000	0.019125	0.002594
0.082000	0.018425	0.002650
0.083000	0.017743	0.002706
0.084000	0.017046	0.002763
0.085000	0.016526	0.002820
0.086000	0.016414	0.002877
0.087000	0.016692	0.002935
0.088000	0.017079	0.002993
0.089000	0.017372	0.003051
0.090000	0.017707	0.003110
0.091000	0.018181	0.003169
0.092000	0.018590	0.003229
0.093000	0.018802	0.003289
0.094000	0.018911	0.003349
0.095000	0.019059	0.003410
0.096000	0.019363	0.003470
0.097000	0.019769	0.003532
0.098000	0.019959	0.003593
0.099000	0.019670	0.003655
0.100000	0.018889	0.003717
0.101000	0.017785	0.003780
0.102000	0.016688	0.003842
0.103000	0.015905	0.003905
0.104000	0.015371	0.003969
0.105000	0.014735	0.004032
0.106000	0.013829	0.004096
0.107000	0.012821	0.004160
0.108000	0.012005	0.004225
0.109000	0.011599	0.004289
0.110000	0.011703	0.004354
0.111000	0.012223	0.004419
0.112000	0.012864	0.004485
0.113000	0.013410	0.004551
0.114000	0.013896	0.004616
0.115000	0.014297	0.004683
0.116000	0.014410	0.004749
0.117000	0.014197	0.004815
0.118000	0.013874	0.004882
0.119000	0.013648	0.004949
0.120000	0.013581	0.005016
0.121000	0.013650	0.005084
0.122000	0.013858	0.005151
0.123000	0.014236	0.005219
0.124000	0.014740	0.005287
0.125000	0.015134	0.005355
0.126000	0.015191	0.005424
0.127000	0.015006	0.005492
0.128000	0.014898	0.005561
0.129000	0.015095	0.005630
0.130000	0.015521	0.005699
0.131000	0.015913	0.005768
0.132000	0.016123	0.005838
0.133000	0.016151	0.005907
0.134000	0.016090	0.005977
0.135000	0.016076	0.006047
0.136000	0.016223	0.006116
0.137000	0.016527	0.006187
0.138000	0.016721	0.006257
0.139000	0.016474	0.006327
0.140000	0.015766	0.006398
0.141000	0.014828	0.006468
0.142000	0.013855	0.006539
0.143000	0.012903	0.006610
0.144000	0.011979	0.006681
0.145000	0.011177	0.006752
0.146000	0.010597	0.006823
0.147000	0.010097	0.006894
0.148000	0.009452	0.006965
0.149000	0.008707	0.007037
0.150000	0.008096	0.007108
0.151000	0.007734	0.007180
0.152000	0.007623	0.007252
0.153000	0.007777	0.007323
0.154000	0.008181	0.007395
0.155000	0.008756	0.007467
0.156000	0.009407	0.007539
0.157000	0.010161	0.007611
0.158000	0.011086	0.007683
0.159000	0.012015	0.007755
0.160000	0.012724	0.007828
0.161000	0.013286	0.007900
0.162000	0.013741	0.007972
0.163000	0.013741	0.008045
0.164000	0.012970	0.008117
0.165000	0.011586	0.008189
0.166000	0.010054	0.008262
0.167000	0.008718	0.008334
0.168000	0.007673	0.008407
0.169000	0.006920	0.008479
0.170000	0.006474	0.008552
0.171000	0.006361	0.008625
0.172000	0.006572	0.008697
0.173000	0.007015	0.008770
0.174000	0.007609	0.008842
0.175000	0.008458	0.008915
0.176000	0.009735	0.008988
0.177000	0.011499	0.009060
0.178000	0.013777	0.009133
0.179000	0.016610	0.009205
0.180000	0.020037	0.009278
0.181000	0.024115	0.009351
0.182000	0.028782	0.009423
0.183000	0.033609	0.009496
0.184000	0.038003	0.009568
0.185000	0.041699	0.009641
0.186000	0.044760	0.009713
0.187000	0.047215	0.009786
0.188000	0.048941	0.009858
0.189000	0.049804	0.009931
0.190000	0.049737	0.010003
0.191000	0.048728	0.010076
0.192000	0.046827	0.010148
0.193000	0.044214	0.010220
0.194000	0.041162	0.010292
0.195000	0.037863	0.010364
0.196000	0.034411	0.010437
0.197000	0.030977	0.010509
0.198000	0.027783	0.010581
0.199000	0.024985	0.010653
0.200000	0.022801	0.010724
0.201000	0.021513	0.010796
0.202000	0.021037	0.010868
0.203000	0.020954	0.010940
0.204000	0.021074	0.011011
0.205000	0.021543	0.011083
0.206000	0.022524	0.011154
0.207000	0.024065	0.011226
0.208000	0.026091	0.011297
0.209000	0.028429	0.011368
0.210000	0.030864	0.011439
0.211000	0.033104	0.011510
0.212000	0.034789	0.011581
0.213000	0.035597	0.011652
0.214000	0.035390	0.011723
0.215000	0.034250	0.011794
0.216000	0.032299	0.011864
0.217000	0.029602	0.011935
0.218000	0.026262	0.012005
0.219000	0.022536	0.012076
0.220000	0.018620	0.012146
0.221000	0.014349	0.012216
0.222000	0.009507	0.012286
0.223000	0.004324	0.012356
0.224000	-0.000587	0.012426
0.225000	-0.004688	0.012495
0.226000	-0.007847	0.012565
0.227000	-0.010275	0.012634
0.228000	-0.012232	0.012704
0.229000	-0.013844	0.012773
0.230000	-0.015142	0.012842
0.231000	-0.016092	0.012911
0.232000	-0.016648	0.012980
0.233000	-0.016883	0.013049
0.234000	-0.016837	0.013118
0.235000	-0.016414	0.013186
0.236000	-0.015664	0.013254
0.237000	-0.014772	0.013323
0.238000	-0.013822	0.013391
0.239000	-0.012986	0.013459
0.240000	-0.012621	0.013527
0.241000	-0.013026	0.013595
0.242000	-0.014235	0.013662
0.243000	-0.016009	0.013730
0.244000	-0.018005	0.013797
0.245000	-0.019935	0.013864
0.246000	-0.021673	0.013931
0.247000	-0.023281	0.013998
0.248000	-0.024904	0.014065
0.249000	-0.026634	0.014132
0.250000	-0.028454	0.014198
0.251000	-0.030202	0.014264
0.252000	-0.031583	0.014331
0.253000	-0.032417	0.014397
0.254000	-0.032879	0.014462
0.255000	-0.033297	0.014528
0.256000	-0.033716	0.014594
0.257000	-0.033784	0.014659
0.258000	-0.033306	0.014724
0.259000	-0.032689	0.014789
0.260000	-0.032508	0.014854
0.261000	-0.033016	0.014919
0.262000	-0.034209	0.014984
0.263000	-0.036007	0.015048
0.264000	-0.038400	0.015112
0.265000	-0.041525	0.015177
0.266000	-0.045525	0.015241
0.267000	-0.050448	0.015304
0.268000	-0.056156	0.015368
0.269000	-0.062209	0.015431
0.270000	-0.068194	0.015495
0.271000	-0.073738	0.015558
0.272000	-0.078041	0.015621
0.273000	-0.080215	0.015683
0.274000	-0.079803	0.015746
0.275000	-0.076498	0.015808
0.276000	-0.069909	0.015871
0.277000	-0.059615	0.015933
0.278000	-0.045051	0.015995
0.279000	-0.025465	0.016056
0.280000	-0.000299	0.016118
0.281000	0.030497	0.016179
0.282000	0.066773	0.016240
0.283000	0.108492	0.016301
0.284000	0.155599	0.016362
0.285000	0.207921	0.016423
0.286000	0.265215	0.016483
0.287000	0.327253	0.016543
0.288000	0.393960	0.016603
0.289000	0.465283	0.016663
0.290000	0.540703	0.016723
0.291000	0.619146	0.016782
0.292000	0.699403	0.016841
0.293000	0.780323	0.016901
0.294000	0.860742	0.016959
0.295000	0.939459	0.017018
0.296000	1.015253	0.017077
0.297000	1.086757	0.017135
0.298000	1.152244	0.017193
0.299000	1.209689	0.017251
0.300000	1.256885	0.017309
0.301000	1.291385	0.017366
0.302000	1.310640	0.017424
0.303000	1.312319	0.017481
0.304000	1.294599	0.017538
0.305000	1.256512	0.017594
0.306000	1.198211	0.017651
0.307000	1.120839	0.017707
0.308000	1.025938	0.017763
0.309000	0.915097	0.017819
0.310000	0.790164	0.017875
0.311000	0.653617	0.017931
0.312000	0.508575	0.017986
0.313000	0.358460	0.018041
0.314000	0.206733	0.018096
0.315000	0.056773	0.018151
0.316000	-0.088121	0.018205
0.317000	-0.224633	0.018260
0.318000	-0.349642	0.018314
0.319000	-0.460599	0.018368
0.320000	-0.555590	0.018421
0.321000	-0.633290	0.018475
0.322000	-0.693216	0.018528
0.323000	-0.735783	0.018581
0.324000	-0.762031	0.018634
0.325000	-0.773647	0.018687
0.326000	-0.772785	0.018739
0.327000	-0.761631	0.018792
0.328000	-0.742367	0.018844
0.329000	-0.717208	0.018896
0.330000	-0.688281	0.018947
0.331000	-0.657582	0.018999
0.332000	-0.626791	0.019050
0.333000	-0.597049	0.019101
0.334000	-0.569076	0.019152
0.335000	-0.543388	0.019203
0.336000	-0.520292	0.019253
0.337000	-0.499942	0.019303
0.338000	-0.482539	0.019354
0.339000	-0.468215	0.019403
0.340000	-0.456694	0.019453
0.341000	-0.447324	0.019502
0.342000	-0.439323	0.019552
0.343000	-0.432012	0.019601
0.344000	-0.425069	0.019649
0.345000	-0.418538	0.019698
0.346000	-0.412452	0.019746
0.347000	-0.406613	0.019795
0.348000	-0.400776	0.019843
0.349000	-0.394791	0.019890
0.350000	-0.388531	0.019938
0.351000	-0.381853	0.019985
0.352000	-0.374754	0.020032
0.353000	-0.367583	0.020079
0.354000	-0.360833	0.020126
0.355000	-0.354638	0.020172
0.356000	-0.348719	0.020219
0.357000	-0.342700	0.020265
0.358000	-0.336493	0.020311
0.359000	-0.330351	0.020356
0.360000	-0.324488	0.020402
0.361000	-0.318904	0.020447
0.362000	-0.313496	0.020492
0.363000	-0.308180	0.020537
0.364000	-0.302919	0.020582
0.365000	-0.297664	0.020626
0.366000	-0.292356	0.020670
0.367000	-0.286976	0.020714
0.368000	-0.281541	0.020758
0.369000	-0.276151	0.020802
0.370000	-0.270952	0.020845
0.371000	-0.265951	0.020889
0.372000	-0.261015	0.020932
0.373000	-0.256020	0.020974
0.374000	-0.250932	0.021017
0.375000	-0.245797	0.021059
0.376000	-0.240629	0.021102
0.377000	-0.235361	0.021144
0.378000	-0.230097	0.021185
0.379000	-0.225112	0.021227
0.380000	-0.220431	0.021268
0.381000	-0.215819	0.021309
0.382000	-0.211139	0.021350
0.383000	-0.206417	0.021391
0.384000	-0.201658	0.021432
0.385000	-0.196752	0.021472
0.386000	-0.191556	0.021512
0.387000	-0.186074	0.021552
0.388000	-0.180633	0.021592
0.389000	-0.175625	0.021631
0.390000	-0.171150	0.021671
0.391000	-0.166998	0.021710
0.392000	-0.162794	0.021749
0.393000	-0.158311	0.021788
0.394000	-0.153701	0.021826
0.395000	-0.149250	0.021864
0.396000	-0.145052	0.021903
0.397000	-0.141020	0.021941
0.398000	-0.137060	0.021978
0.399000	-0.133245	0.022016
0.400000	-0.129716	0.022053
0.401000	-0.126443	0.022090
0.402000	-0.123246	0.022127
0.403000	-0.119969	0.022164
0.404000	-0.116660	0.022200
0.405000	-0.113600	0.022237
0.406000	-0.110914	0.022273
0.407000	-0.108326	0.022309
0.408000	-0.105459	0.022345
0.409000	-0.102243	0.022380
0.410000	-0.098917	0.022416
0.411000	-0.095677	0.022451
0.412000	-0.092654	0.022486
0.413000	-0.090051	0.022521
0.414000	-0.087889	0.022555
0.415000	-0.085899	0.022590
0.416000	-0.083859	0.022624
0.417000	-0.081774	0.022658
0.418000	-0.079733	0.022692
0.419000	-0.077739	0.022725
0.420000	-0.075727	0.022759
0.421000	-0.073672	0.022792
0.422000	-0.071611	0.022825
0.423000	-0.069546	0.022858
0.424000	-0.067370	0.022890
0.425000	-0.064930	0.022923
0.426000	-0.062270	0.022955
0.427000	-0.059700	0.022987
0.428000	-0.057394	0.023019
0.429000	-0.055163	0.023051
0.430000	-0.052779	0.023082
0.431000	-0.050252	0.023114
0.432000	-0.047699	0.023145
0.433000	-0.045068	0.023176
0.434000	-0.042122	0.023206
0.435000	-0.038918	0.023237
0.436000	-0.035989	0.023267
0.437000	-0.033664	0.023298
0.438000	-0.031710	0.023328
0.439000	-0.029731	0.023357
0.440000	-0.027583	0.023387
0.441000	-0.025434	0.023417
0.442000	-0.023512	0.023446
0.443000	-0.021852	0.023475
0.444000	-0.020362	0.023504
0.445000	-0.018967	0.023533
0.446000	-0.017632	0.023561
0.447000	-0.016364	0.023589
0.448000	-0.015134	0.023618
0.449000	-0.013832	0.023646
0.450000	-0.012394	0.023673
0.451000	-0.010772	0.023701
0.452000	-0.009032	0.023729
0.453000	-0.007472	0.023756
0.454000	-0.006273	0.023783
0.455000	-0.005284	0.023810
0.456000	-0.004222	0.023837
0.457000	-0.002869	0.023863
0.458000	-0.001157	0.023890
0.459000	0.000840	0.023916
0.460000	0.002990	0.023942
0.461000	0.005187	0.023968
0.462000	0.007343	0.023993
0.463000	0.009341	0.024019
0.464000	0.011067	0.024044
0.465000	0.012571	0.024069
0.466000	0.014066	0.024094
0.467000	0.015690	0.024119
0.468000	0.017427	0.024144
0.469000	0.019220	0.024168
0.470000	0.021054	0.024193
0.471000	0.022891	0.024217
0.472000	0.024588	0.024241
0.473000	0.026005	0.024265
0.474000	0.027171	0.024288
0.475000	0.028290	0.024312
0.476000	0.029652	0.024335
0.477000	0.031374	0.024358
0.478000	0.033128	0.024381
0.479000	0.034451	0.024404
0.480000	0.035234	0.024427
0.481000	0.035725	0.024449
0.482000	0.036230	0.024471
0.483000	0.036974	0.024493
0.484000	0.038070	0.024515
0.485000	0.039475	0.024537
0.486000	0.041069	0.024559
0.487000	0.042742	0.024581
0.488000	0.044403	0.024602
0.489000	0.046090	0.024623
0.490000	0.047968	0.024644
0.491000	0.049988	0.024665
0.492000	0.051830	0.024686
0.493000	0.053296	0.024706
0.494000	0.054400	0.024727
0.495000	0.055236	0.024747
0.496000	0.056017	0.024767
0.497000	0.056950	0.024787
0.498000	0.057991	0.024807
0.499000	0.058907	0.024826
0.500000	0.059543	0.024846
0.501000	0.059884	0.024865
0.502000	0.060027	0.024884
0.503000	0.060138	0.024903
0.504000	0.060306	0.024922
0.505000	0.060497	0.024941
0.506000	0.060703	0.024960
0.507000	0.060911	0.024978
0.508000	0.061016	0.024996
0.509000	0.060980	0.025015
0.510000	0.060949	0.025033
0.511000	0.061115	0.025050
0.512000	0.061698	0.025068
0.513000	0.062913	0.025086
0.514000	0.064565	0.025103
0.515000	0.066049	0.025120
0.516000	0.067024	0.025137
0.517000	0.067635	0.025154
0.518000	0.068214	0.025171
0.519000	0.069010	0.025188
0.520000	0.070003	0.025205
0.521000	0.070889	0.025221
0.522000	0.071461	0.025237
0.523000	0.071905	0.025253
0.524000	0.072521	0.025269
0.525000	0.073359	0.025285
0.526000	0.074200	0.025301
0.527000	0.074727	0.025317
0.528000	0.074757	0.025332
0.529000	0.074437	0.025347
0.530000	0.074077	0.025362
0.531000	0.073878	0.025378
0.532000	0.073921	0.025392
0.533000	0.074203	0.025407
0.534000	0.074715	0.025422
0.535000	0.075434	0.025436
0.536000	0.076166	0.025451
0.537000	0.076683	0.025465
0.538000	0.076981	0.025479
0.539000	0.077199	0.025493
0.540000	0.077437	0.025507
0.541000	0.077747	0.025521
0.542000	0.078170	0.025534
0.543000	0.078740	0.025548
0.544000	0.079417	0.025561
0.545000	0.080116	0.025574
0.546000	0.080724	0.025587
0.547000	0.081116	0.025600
0.548000	0.081262	0.025613
0.549000	0.081199	0.025626
0.550000	0.080988	0.025639
0.551000	0.080756	0.025651
0.552000	0.080657	0.025663
0.553000	0.080710	0.025676
0.554000	0.080879	0.025688
0.555000	0.081206	0.025700
0.556000	0.081574	0.025712
0.557000	0.081583	0.025723
0.558000	0.080929	0.025735
0.559000	0.079804	0.025747
0.560000	0.078822	0.025758
0.561000	0.078368	0.025769
0.562000	0.078109	0.025781
0.563000	0.077530	0.025792
0.564000	0.076569	0.025803
0.565000	0.075462	0.025813
0.566000	0.074333	0.025824
0.567000	0.073125	0.025835
0.568000	0.071829	0.025845
0.569000	0.070692	0.025856
0.570000	0.070210	0.025866
0.571000	0.070505	0.025876
0.572000	0.070824	0.025886
0.573000	0.070339	0.025896
0.574000	0.069050	0.025906
0.575000	0.067563	0.025916
0.576000	0.066430	0.025925
0.577000	0.065804	0.025935
0.578000	0.065530	0.025944
0.579000	0.065428	0.025954
0.580000	0.065421	0.025963
0.581000	0.065484	0.025972
0.582000	0.065552	0.025981
0.583000	0.065537	0.025990
0.584000	0.065403	0.025999
0.585000	0.065197	0.026007
0.586000	0.064981	0.026016
0.587000	0.064673	0.026024
0.588000	0.064104	0.026033
0.589000	0.063271	0.026041
0.590000	0.062362	0.026049
0.591000	0.061611	0.026057
0.592000	0.061145	0.026065
0.593000	0.060784	0.026073
0.594000	0.060244	0.026081
0.595000	0.059530	0.026089
0.596000	0.058628	0.026097
0.597000	0.057161	0.026104
0.598000	0.054883	0.026112
0.599000	0.052010	0.026119
0.600000	0.048883	0.026126
0.601000	0.045721	0.026133
0.602000	0.042673	0.026140
0.603000	0.039777	0.026147
0.604000	0.036909	0.026154
0.605000	0.033909	0.026161
0.606000	0.030652	0.026168
0.607000	0.027087	0.026175
0.608000	0.023172	0.026181
0.609000	0.018791	0.026188
0.610000	0.013929	0.026194
0.611000	0.008792	0.026200
0.612000	0.003681	0.026206
0.613000	-0.001192	0.026212
0.614000	-0.005801	0.026219
0.615000	-0.010260	0.026224
0.616000	-0.014715	0.026230
0.617000	-0.019272	0.026236
0.618000	-0.023958	0.026242
0.619000	-0.028741	0.026247
0.620000	-0.033621	0.026253
0.621000	-0.038610	0.026258
0.622000	-0.043601	0.026264
0.623000	-0.048407	0.026269
0.624000	-0.052931	0.026274
0.625000	-0.057108	0.026279
0.626000	-0.060914	0.026284
0.627000	-0.064530	0.026289
0.628000	-0.068224	0.026294
0.629000	-0.072102	0.026299
0.630000	-0.076019	0.026304
0.631000	-0.079626	0.026308
0.632000	-0.082614	0.026313
0.633000	-0.085044	0.026317
0.634000	-0.087289	0.026322
0.635000	-0.089624	0.026326
0.636000	-0.092056	0.026330
0.637000	-0.094451	0.026334
0.638000	-0.096476	0.026339
0.639000	-0.097845	0.026343
0.640000	-0.098789	0.026347
0.641000	-0.099764	0.026350
0.642000	-0.100906	0.026354
0.643000	-0.102052	0.026358
0.644000	-0.102959	0.026362
0.645000	-0.103372	0.026365
0.646000	-0.103083	0.026369
0.647000	-0.102063	0.026372
0.648000	-0.100663	0.026376
0.649000	-0.099532	0.026379
0.650000	-0.099067	0.026382
0.651000	-0.099046	0.026385
0.652000	-0.099007	0.026389
0.653000	-0.098845	0.026392
0.654000	-0.098677	0.026395
0.655000	-0.098553	0.026397
0.656000	-0.098478	0.026400
0.657000	-0.098392	0.026403
0.658000	-0.098167	0.026406
0.659000	-0.097766	0.026408
0.660000	-0.097270	0.026411
0.661000	-0.096718	0.026413
0.662000	-0.096051	0.026416
0.663000	-0.095302	0.026418
0.664000	-0.094546	0.026421
0.665000	-0.093682	0.026423
0.666000	-0.092636	0.026425
0.667000	-0.091518	0.026427
0.668000	-0.090219	0.026429
0.669000	-0.088346	0.026431
0.670000	-0.085869	0.026433
0.671000	-0.083341	0.026435
0.672000	-0.081217	0.026437
0.673000	-0.079380	0.026439
0.674000	-0.077456	0.026440
0.675000	-0.075306	0.026442
0.676000	-0.073041	0.026444
0.677000	-0.070636	0.026445
0.678000	-0.067970	0.026447
0.679000	-0.065236	0.026448
0.680000	-0.062890	0.026450
0.681000	-0.061198	0.026451
0.682000	-0.059981	0.026452
0.683000	-0.058863	0.026453
0.684000	-0.057587	0.026455
0.685000	-0.056052	0.026456
0.686000	-0.054172	0.026457
0.687000	-0.051887	0.026458
0.688000	-0.049376	0.026459
0.689000	-0.046981	0.026460
0.690000	-0.044942	0.026460
0.691000	-0.043319	0.026461
0.692000	-0.041981	0.026462
0.693000	-0.040613	0.026463
0.694000	-0.038975	0.026463
0.695000	-0.037085	0.026464
0.696000	-0.035116	0.026465
0.697000	-0.033345	0.026465
0.698000	-0.032074	0.026466
0.699000	-0.031363	0.026466
0.700000	-0.030947	0.026466
0.701000	-0.030509	0.026467
0.702000	-0.029914	0.026467
0.703000	-0.029238	0.026467
0.704000	-0.028588	0.026467
0.705000	-0.027932	0.026468
0.706000	-0.027167	0.026468
0.707000	-0.026186	0.026468
0.708000	-0.024770	0.026468
0.709000	-0.022980	0.026468
0.710000	-0.021436	0.026468
0.711000	-0.020569	0.026468
0.712000	-0.020131	0.026467
0.713000	-0.019644	0.026467
0.714000	-0.018873	0.026467
0.715000	-0.017904	0.026467
0.716000	-0.016886	0.026466
0.717000	-0.015783	0.026466
0.718000	-0.014406	0.026466
0.719000	-0.012721	0.026465
0.720000	-0.011083	0.026465
0.721000	-0.009907	0.026464
0.722000	-0.009121	0.026464
0.723000	-0.008368	0.026463
0.724000	-0.007642	0.026462
0.725000	-0.007240	0.026462
0.726000	-0.007272	0.026461
0.727000	-0.007446	0.026460
0.728000	-0.007359	0.026459
0.729000	-0.006946	0.026459
0.730000	-0.006446	0.026458
0.731000	-0.006116	0.026457
0.732000	-0.006038	0.026456
0.733000	-0.006011	0.026455
0.734000	-0.005745	0.026454
0.735000	-0.005245	0.026453
0.736000	-0.004810	0.026452
0.737000	-0.004647	0.026451
0.738000	-0.004721	0.026449
0.739000	-0.004953	0.026448
0.740000	-0.005336	0.026447
0.741000	-0.005777	0.026446
0.742000	-0.006072	0.026445
0.743000	-0.006190	0.026443
0.744000	-0.006298	0.026442
0.745000	-0.006477	0.026440
0.746000	-0.006645	0.026439
0.747000	-0.006706	0.026438
0.748000	-0.006661	0.026436
0.749000	-0.006618	0.026435
0.750000	-0.006628	0.026433
0.751000	-0.006600	0.026432
0.752000	-0.006509	0.026430
0.753000	-0.006441	0.026428
0.754000	-0.006285	0.026427
0.755000	-0.005653	0.026425
0.756000	-0.004349	0.026423
0.757000	-0.002758	0.026422
0.758000	-0.001503	0.026420
0.759000	-0.000806	0.026418
0.760000	-0.000368	0.026416
0.761000	0.000093	0.026414
0.762000	0.000531	0.026413
0.763000	0.000889	0.026411
0.764000	0.001254	0.026409
0.765000	0.001621	0.026407
0.766000	0.001879	0.026405
0.767000	0.001956	0.026403
0.768000	0.001899	0.026401
0.769000	0.001789	0.026399
0.770000	0.001631	0.026397
0.771000	0.001499	0.026395
0.772000	0.001607	0.026393
0.773000	0.002140	0.026391
0.774000	0.003053	0.026389
0.775000	0.003890	0.026386
0.776000	0.004103	0.026384
0.777000	0.003664	0.026382
0.778000	0.003009	0.026380
0.779000	0.002606	0.026378
0.780000	0.002726	0.026375
0.781000	0.003337	0.026373
0.782000	0.004045	0.026371
0.783000	0.004337	0.026369
0.784000	0.003997	0.026366
0.785000	0.003153	0.026364
0.786000	0.002049	0.026362
0.787000	0.000881	0.026359
0.788000	-0.000218	0.026357
0.789000	-0.001081	0.026355
0.790000	-0.001607	0.026352
0.791000	-0.001946	0.026350
0.792000	-0.002334	0.026347
0.793000	-0.002760	0.026345
0.794000	-0.002974	0.026342
0.795000	-0.002814	0.026340
0.796000	-0.002366	0.026337
0.797000	-0.001825	0.026335
0.798000	-0.001346	0.026332
0.799000	-0.001007	0.026330
0.800000	-0.000743	0.026327
0.801000	-0.000363	0.026324
0.802000	0.000282	0.026322
0.803000	0.001173	0.026319
0.804000	0.002215	0.026317
0.805000	0.003210	0.026314
0.806000	0.003835	0.026311
0.807000	0.004007	0.026309
0.808000	0.003937	0.026306
0.809000	0.003829	0.026303
0.810000	0.003797	0.026301
0.811000	0.003923	0.026298
0.812000	0.004265	0.026295
0.813000	0.004748	0.026292
0.814000	0.005171	0.026290
0.815000	0.005510	0.026287
0.816000	0.006088	0.026284
0.817000	0.007204	0.026281
0.818000	0.008670	0.026279
0.819000	0.009970	0.026276
0.820000	0.010720	0.026273
0.821000	0.010868	0.026270
0.822000	0.010595	0.026267
0.823000	0.010181	0.026264
0.824000	0.009902	0.026262
0.825000	0.009861	0.026259
0.826000	0.010027	0.026256
0.827000	0.010468	0.026253
0.828000	0.011128	0.026250
0.829000	0.011592	0.026247
0.830000	0.011473	0.026244
0.831000	0.010787	0.026241
0.832000	0.009882	0.026238
0.833000	0.009032	0.026235
0.834000	0.008223	0.026232
0.835000	0.007471	0.026230
0.836000	0.006999	0.026227
0.837000	0.006885	0.026224
0.838000	0.006894	0.026221
0.839000	0.006779	0.026218
0.840000	0.006544	0.026215
0.841000	0.006529	0.026212
0.842000	0.007104	0.026209
0.843000	0.008059	0.026206
0.844000	0.008721	0.026203
0.845000	0.008757	0.026200
0.846000	0.008366	0.026197
0.847000	0.007908	0.026194
0.848000	0.007645	0.026191
0.849000	0.007658	0.026187
0.850000	0.007896	0.026184
0.851000	0.008277	0.026181
0.852000	0.008731	0.026178
0.853000	0.009272	0.026175
0.854000	0.009897	0.026172
0.855000	0.010410	0.026169
0.856000	0.010620	0.026166
0.857000	0.010547	0.026163
0.858000	0.010311	0.026160
0.859000	0.010062	0.026157
0.860000	0.010029	0.026153
0.861000	0.010456	0.026150
0.862000	0.011285	0.026147
0.863000	0.012131	0.026144
0.864000	0.012775	0.026141
0.865000	0.013330	0.026138
0.866000	0.013852	0.026135
0.867000	0.014246	0.026132
0.868000	0.014532	0.026128
0.869000	0.014887	0.026125
0.870000	0.015461	0.026122
0.871000	0.016367	0.026119
0.872000	0.017755	0.026116
0.873000	0.019634	0.026113
0.874000	0.021608	0.026109
0.875000	0.022955	0.026106
0.876000	0.023253	0.026103
0.877000	0.022758	0.026100
0.878000	0.022100	0.026097
0.879000	0.021941	0.026093
0.880000	0.022604	0.026090
0.881000	0.023757	0.026087
0.882000	0.024754	0.026084
0.883000	0.025171	0.026081
0.884000	0.024986	0.026078
0.885000	0.024601	0.026074
0.886000	0.024714	0.026071
0.887000	0.025450	0.026068
0.888000	0.026021	0.026065
0.889000	0.025936	0.026062
0.890000	0.025450	0.026059
0.891000	0.024925	0.026055
0.892000	0.024608	0.026052
0.893000	0.024578	0.026049
0.894000	0.024693	0.026046
0.895000	0.024796	0.026043
0.896000	0.024941	0.026040
0.897000	0.025191	0.026036
0.898000	0.025373	0.026033
0.899000	0.025274	0.026030
0.900000	0.024907	0.026027
0.901000	0.024465	0.026024
0.902000	0.024074	0.026021
0.903000	0.023718	0.026017
0.904000	0.023399	0.026014
0.905000	0.023215	0.026011
0.906000	0.023268	0.026008
0.907000	0.023594	0.026005
0.908000	0.024170	0.026002
0.909000	0.024826	0.025998
0.910000	0.025204	0.025995
0.911000	0.025094	0.025992
0.912000	0.024702	0.025989
0.913000	0.024424	0.025986
0.914000	0.024414	0.025983
0.915000	0.024583	0.025980
0.916000	0.024847	0.025977
0.917000	0.025160	0.025973
0.918000	0.025460	0.025970
0.919000	0.025739	0.025967
0.920000	0.026015	0.025964
0.921000	0.026203	0.025961
0.922000	0.026241	0.025958
0.923000	0.026295	0.025955
0.924000	0.026601	0.025952
0.925000	0.027137	0.025949
0.926000	0.027642	0.025946
0.927000	0.027937	0.025943
0.928000	0.028134	0.025939
0.929000	0.028468	0.025936
0.930000	0.028996	0.025933
0.931000	0.029685	0.025930
0.932000	0.030504	0.025927
0.933000	0.031205	0.025924
0.934000	0.031472	0.025921
0.935000	0.031267	0.025918
0.936000	0.030797	0.025915
0.937000	0.030306	0.025912
0.938000	0.030010	0.025909
0.939000	0.030015	0.025906
0.940000	0.030180	0.025903
0.941000	0.030259	0.025900
0.942000	0.030075	0.025897
0.943000	0.029589	0.025894
0.944000	0.028954	0.025891
0.945000	0.028382	0.025888
0.946000	0.027927	0.025885
0.947000	0.027568	0.025882
0.948000	0.027371	0.025879
0.949000	0.027403	0.025876
0.950000	0.027639	0.025873
0.951000	0.027982	0.025870
0.952000	0.028274	0.025867
0.953000	0.028383	0.025865
0.954000	0.028326	0.025862
0.955000	0.028276	0.025859
0.956000	0.028361	0.025856
0.957000	0.028500	0.025853
0.958000	0.028625	0.025850
0.959000	0.028750	0.025847
0.960000	0.028761	0.025844
0.961000	0.028556	0.025841
0.962000	0.028242	0.025839
0.963000	0.027979	0.025836
0.964000	0.027894	0.025833
0.965000	0.028188	0.025830
0.966000	0.028985	0.025827
0.967000	0.029970	0.025824
0.968000	0.030563	0.025821
0.969000	0.030572	0.025819
0.970000	0.030242	0.025816
0.971000	0.029822	0.025813
0.972000	0.029495	0.025810
0.973000	0.029421	0.025807
0.974000	0.029572	0.025805
0.975000	0.029776	0.025802
0.976000	0.029926	0.025799
0.977000	0.030008	0.025796
0.978000	0.030036	0.025794
0.979000	0.030019	0.025791
0.980000	0.030065	0.025788
0.981000	0.030363	0.025785
0.982000	0.030667	0.025783
0.983000	0.030400	0.025780
0.984000	0.029423	0.025777
0.985000	0.028093	0.025774
0.986000	0.026830	0.025772
0.987000	0.025829	0.025769
0.988000	0.025002	0.025766
0.989000	0.024295	0.025764
0.990000	0.023994	0.025761
0.991000	0.024163	0.025758
0.992000	0.024164	0.025756
0.993000	0.023453	0.025753
0.994000	0.022156	0.025750
0.995000	0.020701	0.025748
0.996000	0.019510	0.025745
0.997000	0.018910	0.025743
0.998000	0.019009	0.025740
0.999000	0.019605	0.025737
1.000000	0.020345	0.025735
1.001000	0.020999	0.025732
1.002000	0.021434	0.025730
1.003000	0.021604	0.025727
1.004000	0.021658	0.025725
1.005000	0.021744	0.025722
1.006000	0.021908	0.025719
1.007000	0.022240	0.025717
1.008000	0.022633	0.025714
1.009000	0.022752	0.025712
1.010000	0.022566	0.025709
1.011000	0.022343	0.025707
1.012000	0.022136	0.025705
1.013000	0.021798	0.025702
1.014000	0.021291	0.025700
1.015000	0.020670	0.025697
1.016000	0.020013	0.025695
1.017000	0.019423	0.025692
1.018000	0.018921	0.025690
1.019000	0.018448	0.025687
1.020000	0.017999	0.025685
1.021000	0.017652	0.025682
1.022000	0.017604	0.025680
1.023000	0.018029	0.025678
1.024000	0.018743	0.025675
1.025000	0.019338	0.025673
1.026000	0.019605	0.025670
1.027000	0.019598	0.025668
1.028000	0.019503	0.025666
1.029000	0.019626	0.025663
1.030000	0.020271	0.025661
1.031000	0.021479	0.025659
1.032000	0.023019	0.025656
1.033000	0.024453	0.025654
1.034000	0.025227	0.025652
1.035000	0.025155	0.025650
1.036000	0.024642	0.025647
1.037000	0.024265	0.025645
1.038000	0.024287	0.025643
1.039000	0.024534	0.025640
1.040000	0.024764	0.025638
1.041000	0.024966	0.025636
1.042000	0.025100	0.025634
1.043000	0.024883	0.025631
1.044000	0.024036	0.025629
1.045000	0.022585	0.025627
1.046000	0.020907	0.025625
1.047000	0.019499	0.025623
1.048000	0.018565	0.025620
1.049000	0.017863	0.025618
1.050000	0.017062	0.025616
1.051000	0.016144	0.025614
1.052000	0.015425	0.025612
1.053000	0.015321	0.025610
1.054000	0.016008	0.025607
1.055000	0.017112	0.025605
1.056000	0.017976	0.025603
1.057000	0.018403	0.025601
1.058000	0.018741	0.025599
1.059000	0.019363	0.025597
1.060000	0.020436	0.025595
1.061000	0.021940	0.025592
1.062000	0.023583	0.025590
1.063000	0.025146	0.025588
1.064000	0.026699	0.025586
1.065000	0.027941	0.025584
1.066000	0.028238	0.025582
1.067000	0.027485	0.025580
1.068000	0.026232	0.025578
1.069000	0.025036	0.025576
1.070000	0.023951	0.025574
1.071000	0.022731	0.025572
1.072000	0.021365	0.025570
1.073000	0.020140	0.025568
1.074000	0.019183	0.025566
1.075000	0.018172	0.025564
1.076000	0.016663	0.025562
1.077000	0.014570	0.025560
1.078000	0.012180	0.025558
1.079000	0.009894	0.025556
1.080000	0.008039	0.025554
1.081000	0.006778	0.025552
1.082000	0.006223	0.025550
1.083000	0.006542	0.025548
1.084000	0.007588	0.025546
1.085000	0.008740	0.025544
1.086000	0.009541	0.025542
1.087000	0.010053	0.025540
1.088000	0.010449	0.025538
1.089000	0.010769	0.025536
1.090000	0.011052	0.025535
1.091000	0.011379	0.025533
1.092000	0.011776	0.025531
1.093000	0.012227	0.025529
1.094000	0.012756	0.025527
1.095000	0.013338	0.025525
1.096000	0.013804	0.025524
1.097000	0.014039	0.025522
1.098000	0.014121	0.025520
1.099000	0.014111	0.025518
1.100000	0.013882	0.025516
1.101000	0.013376	0.025515
1.102000	0.012829	0.025513
1.103000	0.012449	0.025511
1.104000	0.012132	0.025509
1.105000	0.011666	0.025508
1.106000	0.010937	0.025506
1.107000	0.009974	0.025504
1.108000	0.008920	0.025503
1.109000	0.007940	0.025501
1.110000	0.007183	0.025499
1.111000	0.006779	0.025497
1.112000	0.006796	0.025496
1.113000	0.007227	0.025494
1.114000	0.008121	0.025493
1.115000	0.009515	0.025491
1.116000	0.011183	0.025489
1.117000	0.012891	0.025488
1.118000	0.014724	0.025486
1.119000	0.016895	0.025484
1.120000	0.019565	0.025483
1.121000	0.022858	0.025481
1.122000	0.026738	0.025480
1.123000	0.030874	0.025478
1.124000	0.034845	0.025477
1.125000	0.038431	0.025475
1.126000	0.041588	0.025474
1.127000	0.044247	0.025472
1.128000	0.046183	0.025471
1.129000	0.047134	0.025469
1.130000	0.047037	0.025468
1.131000	0.046061	0.025466
1.132000	0.044530	0.025465
1.133000	0.042820	0.025463
1.134000	0.041152	0.025462
1.135000	0.039612	0.025460
1.136000	0.038183	0.025459
1.137000	0.036704	0.025457
1.138000	0.035214	0.025456
1.139000	0.033913	0.025454
1.140000	0.032746	0.025453
1.141000	0.031635	0.025452
1.142000	0.030764	0.025450
1.143000	0.030317	0.025449
1.144000	0.030310	0.025447
1.145000	0.030697	0.025446
1.146000	0.031455	0.025445
1.147000	0.032589	0.025443
1.148000	0.034260	0.025442
1.149000	0.036526	0.025441
1.150000	0.038671	0.025439
1.151000	0.039618	0.025438
1.152000	0.038988	0.025437
1.153000	0.037264	0.025435
1.154000	0.035096	0.025434
1.155000	0.032822	0.025433
1.156000	0.030564	0.025432
1.157000	0.028301	0.025430
1.158000	0.025806	0.025429
1.159000	0.022712	0.025428
1.160000	0.018854	0.025427
1.161000	0.014560	0.025425
1.162000	0.010395	0.025424
1.163000	0.006640	0.025423
1.164000	0.003355	0.025422
1.165000	0.000662	0.025420
1.166000	-0.001501	0.025419
1.167000	-0.003384	0.025418
1.168000	-0.005094	0.025417
1.169000	-0.006629	0.025416
1.170000	-0.007982	0.025414
1.171000	-0.009122	0.025413
1.172000	-0.009997	0.025412
1.173000	-0.010576	0.025411
1.174000	-0.010930	0.025410
1.175000	-0.011177	0.025409
1.176000	-0.011368	0.025408
1.177000	-0.011481	0.025406
1.178000	-0.011610	0.025405
1.179000	-0.012078	0.025404
1.180000	-0.013195	0.025403
1.181000	-0.014934	0.025402
1.182000	-0.016977	0.025401
1.183000	-0.019108	0.025400
1.184000	-0.021343	0.025399
1.185000	-0.023624	0.025398
1.186000	-0.025740	0.025397
1.187000	-0.027518	0.025396
1.188000	-0.028833	0.025395
1.189000	-0.029646	0.025394
1.190000	-0.030152	0.025393
1.191000	-0.030606	0.025392
1.192000	-0.031074	0.025391
1.193000	-0.031460	0.025390
1.194000	-0.031647	0.025389
1.195000	-0.031526	0.025388
1.196000	-0.030985	0.025387
1.197000	-0.030085	0.025386
1.198000	-0.029051	0.025385
1.199000	-0.028072	0.025384
1.200000	-0.027440	0.025383
1.201000	-0.027578	0.025383
1.202000	-0.028678	0.025382
1.203000	-0.030667	0.025381
1.204000	-0.033354	0.025380
1.205000	-0.036592	0.025379
1.206000	-0.040556	0.025378
1.207000	-0.045452	0.025377
1.208000	-0.050983	0.025376
1.209000	-0.056571	0.025376
1.210000	-0.061694	0.025375
1.211000	-0.065756	0.025374
1.212000	-0.068007	0.025373
1.213000	-0.067727	0.025372
1.214000	-0.064320	0.025372
1.215000	-0.057224	0.025371
1.216000	-0.045976	0.025370
1.217000	-0.030358	0.025369
1.218000	-0.010132	0.025368
1.219000	0.015359	0.025368
1.220000	0.046796	0.025367
1.221000	0.084095	0.025366
1.222000	0.126781	0.025365
1.223000	0.174765	0.025365
1.224000	0.228200	0.025364
1.225000	0.287041	0.025363
1.226000	0.350946	0.025363
1.227000	0.419556	0.025362
1.228000	0.492534	0.025361
1.229000	0.569190	0.025361
1.230000	0.648559	0.025360
1.231000	0.729615	0.025359
1.232000	0.811055	0.025359
1.233000	0.891254	0.025358
1.234000	0.968692	0.025357
1.235000	1.042383	0.025357
1.236000	1.111564	0.025356
1.237000	1.174867	0.025355
1.238000	1.230159	0.025355
1.239000	1.274983	0.025354
1.240000	1.306710	0.025353
1.241000	1.322465	0.025353
1.242000	1.319636	0.025352
1.243000	1.296785	0.025352
1.244000	1.253720	0.025351
1.245000	1.190891	0.025350
1.246000	1.109334	0.025350
1.247000	1.010695	0.025349
1.248000	0.896824	0.025349
1.249000	0.769673	0.025348
1.250000	0.631707	0.025347
1.251000	0.485968	0.025347
1.252000	0.335635	0.025346
1.253000	0.183868	0.025346
1.254000	0.034000	0.025345
1.255000	-0.110405	0.025345
1.256000	-0.245917	0.025344
1.257000	-0.369643	0.025344
1.258000	-0.479305	0.025343
1.259000	-0.573247	0.025342
1.260000	-0.650392	0.025342
1.261000	-0.710159	0.025341
1.262000	-0.752586	0.025341
1.263000	-0.778557	0.025340
1.264000	-0.789779	0.025340
1.265000	-0.788465	0.025339
1.266000	-0.777026	0.025339
1.267000	-0.757879	0.025338
1.268000	-0.733244	0.025338
1.269000	-0.705018	0.025337
1.270000	-0.674784	0.025337
1.271000	-0.643861	0.025336
1.272000	-0.613215	0.025336
1.273000	-0.583606	0.025335
1.274000	-0.555933	0.025335
1.275000	-0.530979	0.025334
1.276000	-0.509016	0.025334
1.277000	-0.490020	0.025333
1.278000	-0.473892	0.025333
1.279000	-0.460349	0.025332
1.280000	-0.448822	0.025332
1.281000	-0.438648	0.025331
1.282000	-0.429393	0.025331
1.283000	-0.420878	0.025330
1.284000	-0.412946	0.025330
1.285000	-0.405431	0.025330
1.286000	-0.398219	0.025329
1.287000	-0.391283	0.025329
1.288000	-0.384607	0.025328
1.289000	-0.378068	0.025328
1.290000	-0.371610	0.025327
1.291000	-0.365236	0.025327
1.292000	-0.358650	0.025326
1.293000	-0.351451	0.025326
1.294000	-0.343862	0.025326
1.295000	-0.336572	0.025325
1.296000	-0.329966	0.025325
1.297000	-0.324266	0.025324
1.298000	-0.319617	0.025324
1.299000	-0.315624	0.025324
1.300000	-0.311590	0.025323
1.301000	-0.307087	0.025323
1.302000	-0.301919	0.025322
1.303000	-0.296179	0.025322
1.304000	-0.290455	0.025322
1.305000	-0.285278	0.025321
1.306000	-0.280641	0.025321
1.307000	-0.276285	0.025321
1.308000	-0.271973	0.025320
1.309000	-0.267588	0.025320
1.310000	-0.263179	0.025319
1.311000	-0.258848	0.025319
1.312000	-0.254630	0.025319
1.313000	-0.250493	0.025318
1.314000	-0.246263	0.025318
1.315000	-0.241682	0.025318
1.316000	-0.236721	0.025317
1.317000	-0.231644	0.025317
1.318000	-0.226656	0.025317
1.319000	-0.221746	0.025316
1.320000	-0.216839	0.025316
1.321000	-0.211934	0.025316
1.322000	-0.207110	0.025315
1.323000	-0.202446	0.025315
1.324000	-0.197892	0.025315
1.325000	-0.193294	0.025314
1.326000	-0.188559	0.025314
1.327000	-0.183723	0.025314
1.328000	-0.178871	0.025313
1.329000	-0.174026	0.025313
1.330000	-0.169193	0.025313
1.331000	-0.164487	0.025313
1.332000	-0.159981	0.025312
1.333000	-0.155461	0.025312
1.334000	-0.150681	0.025312
1.335000	-0.145869	0.025312
1.336000	-0.141454	0.025311
1.337000	-0.137523	0.025311
1.338000	-0.133917	0.025311
1.339000	-0.130400	0.025311
1.340000	-0.126734	0.025310
1.341000	-0.122855	0.025310
1.342000	-0.118839	0.025310
1.343000	-0.114761	0.025310
1.344000	-0.110774	0.025309
1.345000	-0.107058	0.025309
1.346000	-0.103594	0.025309
1.347000	-0.100203	0.025309
1.348000	-0.096718	0.025309
1.349000	-0.093124	0.025308
1.350000	-0.089680	0.025308
1.351000	-0.086692	0.025308
1.352000	-0.084114	0.025308
1.353000	-0.081543	0.025308
1.354000	-0.078610	0.025307
1.355000	-0.075219	0.025307
1.356000	-0.071540	0.025307
1.357000	-0.068101	0.025307
1.358000	-0.065442	0.025307
1.359000	-0.063549	0.025307
1.360000	-0.062012	0.025306
1.361000	-0.060519	0.025306
1.362000	-0.058949	0.025306
1.363000	-0.057241	0.025306
1.364000	-0.055368	0.025306
1.365000	-0.053424	0.025306
1.366000	-0.051595	0.025306
1.367000	-0.049975	0.025305
1.368000	-0.048320	0.025305
1.369000	-0.046121	0.025305
1.370000	-0.043311	0.025305
1.371000	-0.040411	0.025305
1.372000	-0.037867	0.025305
1.373000	-0.035858	0.025305
1.374000	-0.034322	0.025305
1.375000	-0.032960	0.025304
1.376000	-0.031500	0.025304
1.377000	-0.029785	0.025304
1.378000	-0.027684	0.025304
1.379000	-0.025116	0.025304
1.380000	-0.022172	0.025304
1.381000	-0.019254	0.025304
1.382000	-0.016894	0.025304
1.383000	-0.015276	0.025304
1.384000	-0.014142	0.025303
1.385000	-0.013084	0.025303
1.386000	-0.011800	0.025303
1.387000	-0.010303	0.025303
1.388000	-0.008803	0.025303
1.389000	-0.007351	0.025303
1.390000	-0.005809	0.025303
1.391000	-0.004077	0.025303
1.392000	-0.002171	0.025303
1.393000	-0.000181	0.025303
1.394000	0.001807	0.025303
1.395000	0.003745	0.025303
1.396000	0.005582	0.025303
1.397000	0.007233	0.025303
1.398000	0.008649	0.025303
1.399000	0.009852	0.025303
1.400000	0.010917	0.025302
1.401000	0.011957	0.025302
1.402000	0.013050	0.025302
1.403000	0.014199	0.025302
1.404000	0.015366	0.025302
1.405000	0.016500	0.025302
1.406000	0.017691	0.025302
1.407000	0.019173	0.025302
1.408000	0.020956	0.025302
1.409000	0.022818	0.025302
1.410000	0.024628	0.025302
1.411000	0.026336	0.025302
1.412000	0.027917	0.025302
1.413000	0.029414	0.025302
1.414000	0.030800	0.025302
1.415000	0.032012	0.025302
1.416000	0.033288	0.025302
1.417000	0.034927	0.025302
1.418000	0.036572	0.025302
1.419000	0.037561	0.025302
1.420000	0.037832	0.025302
1.421000	0.037906	0.025302
1.422000	0.038219	0.025302
1.423000	0.038750	0.025302
1.424000	0.039458	0.025302
1.425000	0.040566	0.025302
1.426000	0.041978	0.025302
1.427000	0.043172	0.025302
1.428000	0.043825	0.025302
1.429000	0.044203	0.025302
1.430000	0.044865	0.025302
1.431000	0.045906	0.025302
1.432000	0.046837	0.025302
1.433000	0.047402	0.025302
1.434000	0.048003	0.025302
1.435000	0.049089	0.025302
1.436000	0.050660	0.025302
1.437000	0.052340	0.025302
1.438000	0.053805	0.025302
1.439000	0.055036	0.025302
1.440000	0.055964	0.025302
1.441000	0.056424	0.025302
1.442000	0.056471	0.025302
1.443000	0.056365	0.025302
1.444000	0.056396	0.025302
1.445000	0.056721	0.025302
1.446000	0.057413	0.025302
1.447000	0.058455	0.025302
1.448000	0.059581	0.025302
1.449000	0.060500	0.025302
1.450000	0.061130	0.025302
1.451000	0.061601	0.025302
1.452000	0.062177	0.025302
1.453000	0.063072	0.025302
1.454000	0.064274	0.025302
1.455000	0.065633	0.025302
1.456000	0.067139	0.025302
1.457000	0.068920	0.025302
1.458000	0.070792	0.025302
1.459000	0.072227	0.025302
1.460000	0.072962	0.025302
1.461000	0.073241	0.025302
1.462000	0.073492	0.025302
1.463000	0.074048	0.025302
1.464000	0.074983	0.025302
1.465000	0.076075	0.025302
1.466000	0.077024	0.025302
1.467000	0.077735	0.025302
1.468000	0.078306	0.025303
1.469000	0.078850	0.025303
1.470000	0.079429	0.025303
1.471000	0.080020	0.025303
1.472000	0.080573	0.025303
1.473000	0.081124	0.025303
1.474000	0.081689	0.025303
1.475000	0.082179	0.025303
1.476000	0.082548	0.025303
1.477000	0.082931	0.025303
1.478000	0.083495	0.025303
1.479000	0.084203	0.025303
1.480000	0.084845	0.025303
1.481000	0.085224	0.025303
1.482000	0.085279	0.025303
1.483000	0.085149	0.025303
1.484000	0.085065	0.025303
1.485000	0.085306	0.025303
1.486000	0.086147	0.025303
1.487000	0.087397	0.025303
1.488000	0.088321	0.025303
1.489000	0.088375	0.025304
1.490000	0.087617	0.025304
1.491000	0.086525	0.025304
1.492000	0.085610	0.025304
1.493000	0.085033	0.025304
1.494000	0.084570	0.025304
1.495000	0.083961	0.025304
1.496000	0.083298	0.025304
1.497000	0.082866	0.025304
1.498000	0.082436	0.025304
1.499000	0.081368	0.025304
1.500000	0.079515	0.025304
1.501000	0.077303	0.025304
1.502000	0.075308	0.025304
1.503000	0.074021	0.025304
1.504000	0.073455	0.025304
1.505000	0.073220	0.025304
1.506000	0.072986	0.025305
1.507000	0.072493	0.025305
1.508000	0.071591	0.025305
1.509000	0.070436	0.025305
1.510000	0.069360	0.025305
1.511000	0.068465	0.025305
1.512000	0.067609	0.025305
1.513000	0.066801	0.025305
1.514000	0.066171	0.025305
1.515000	0.065637	0.025305
1.516000	0.064959	0.025305
1.517000	0.064031	0.025305
1.518000	0.062948	0.025306
1.519000	0.061882	0.025306
1.520000	0.060983	0.025306
1.521000	0.060308	0.025306
1.522000	0.059797	0.025306
1.523000	0.059387	0.025306
1.524000	0.059066	0.025306
1.525000	0.058788	0.025306
1.526000	0.058552	0.025306
1.527000	0.058468	0.025307
1.528000	0.058623	0.025307
1.529000	0.058987	0.025307
1.530000	0.059415	0.025307
1.531000	0.059813	0.025307
1.532000	0.060177	0.025307
1.533000	0.060259	0.025307
1.534000	0.059634	0.025307
1.535000	0.058138	0.025307
1.536000	0.055948	0.025308
1.537000	0.053355	0.025308
1.538000	0.050565	0.025308
1.539000	0.047650	0.025308
1.540000	0.044621	0.025308
1.541000	0.041470	0.025308
1.542000	0.038148	0.025308
1.543000	0.034653	0.025308
1.544000	0.031038	0.025309
1.545000	0.027155	0.025309
1.546000	0.022729	0.025309
1.547000	0.017757	0.025309
1.548000	0.012619	0.025309
1.549000	0.007882	0.025309
1.550000	0.003828	0.025309
1.551000	0.000189	0.025310
1.552000	-0.003486	0.025310
1.553000	-0.007493	0.025310
1.554000	-0.011833	0.025310
1.555000	-0.016114	0.025310
1.556000	-0.019951	0.025310
1.557000	-0.023526	0.025310
1.558000	-0.027216	0.025311
1.559000	-0.031127	0.025311
1.560000	-0.035267	0.025311
1.561000	-0.039566	0.025311
1.562000	-0.043850	0.025311
1.563000	-0.047902	0.025311
1.564000	-0.051631	0.025311
1.565000	-0.055248	0.025312
1.566000	-0.059086	0.025312
1.567000	-0.063253	0.025312
1.568000	-0.067553	0.025312
1.569000	-0.071670	0.025312
1.570000	-0.075411	0.025312
1.571000	-0.078769	0.025313
1.572000	-0.081811	0.025313
1.573000	-0.084621	0.025313
1.574000	-0.087315	0.025313
1.575000	-0.089961	0.025313
1.576000	-0.092536	0.025313
1.577000	-0.094959	0.025314
1.578000	-0.097077	0.025314
1.579000	-0.098834	0.025314
1.580000	-0.100391	0.025314
1.581000	-0.101651	0.025314
1.582000	-0.102303	0.025314
1.583000	-0.102383	0.025314
1.584000	-0.102105	0.025315
1.585000	-0.101684	0.025315
1.586000	-0.101362	0.025315
1.587000	-0.101159	0.025315
1.588000	-0.100896	0.025315
1.589000	-0.100482	0.025315
1.590000	-0.099835	0.025316
1.591000	-0.098797	0.025316
1.592000	-0.097457	0.025316
1.593000	-0.096226	0.025316
1.594000	-0.095403	0.025316
1.595000	-0.094976	0.025316
1.596000	-0.094836	0.025317
1.597000	-0.094816	0.025317
1.598000	-0.094658	0.025317
1.599000	-0.094203	0.025317
1.600000	-0.093518	0.025317
1.601000	-0.092706	0.025317
1.602000	-0.091762	0.025318
1.603000	-0.090629	0.025318
1.604000	-0.089316	0.025318
1.605000	-0.087975	0.025318
1.606000	-0.086749	0.025318
1.607000	-0.085571	0.025318
1.608000	-0.084215	0.025318
1.609000	-0.082544	0.025319
1.610000	-0.080648	0.025319
1.611000	-0.078725	0.025319
1.612000	-0.076879	0.025319
1.613000	-0.075072	0.025319
1.614000	-0.073181	0.025319
1.615000	-0.070982	0.025319
1.616000	-0.068197	0.025320
1.617000	-0.064836	0.025320
1.618000	-0.061505	0.025320
1.619000	-0.059016	0.025320
1.620000	-0.057549	0.025320
1.621000	-0.056565	0.025320
1.622000	-0.055509	0.025321
1.623000	-0.054182	0.025321
1.624000	-0.052506	0.025321
1.625000	-0.050468	0.025321
1.626000	-0.048288	0.025321
1.627000	-0.046301	0.025321
1.628000	-0.044735	0.025322
1.629000	-0.043672	0.025322
1.630000	-0.042965	0.025322
1.631000	-0.042310	0.025322
1.632000	-0.041543	0.025322
1.633000	-0.040719	0.025322
1.634000	-0.039946	0.025323
1.635000	-0.039249	0.025323
1.636000	-0.038529	0.025323
1.637000	-0.037583	0.025323
1.638000	-0.036123	0.025323
1.639000	-0.034122	0.025323
1.640000	-0.032169	0.025324
1.641000	-0.030856	0.025324
1.642000	-0.030079	0.025324
1.643000	-0.029353	0.025324
1.644000	-0.028417	0.025324
1.645000	-0.027211	0.025324
1.646000	-0.025583	0.025324
1.647000	-0.023550	0.025325
1.648000	-0.021462	0.025325
1.649000	-0.019519	0.025325
1.650000	-0.017677	0.025325
1.651000	-0.016002	0.025325
1.652000	-0.014670	0.025325
1.653000	-0.013685	0.025325
1.654000	-0.012771	0.025326
1.655000	-0.011785	0.025326
1.656000	-0.010871	0.025326
1.657000	-0.010104	0.025326
1.658000	-0.009424	0.025326
1.659000	-0.008797	0.025326
1.660000	-0.008241	0.025326
1.661000	-0.007762	0.025326
1.662000	-0.007306	0.025327
1.663000	-0.006801	0.025327
1.664000	-0.006235	0.025327
1.665000	-0.005647	0.025327
1.666000	-0.005098	0.025327
1.667000	-0.004662	0.025327
1.668000	-0.004336	0.025327
1.669000	-0.004071	0.025328
1.670000	-0.003853	0.025328
1.671000	-0.003587	0.025328
1.672000	-0.003116	0.025328
1.673000	-0.002386	0.025328
1.674000	-0.001470	0.025328
1.675000	-0.000499	0.025328
1.676000	0.000489	0.025329
1.677000	0.001528	0.025329
1.678000	0.002426	0.025329
1.679000	0.002773	0.025329
1.680000	0.002364	0.025329
1.681000	0.001366	0.025329
1.682000	0.000094	0.025329
1.683000	-0.001197	0.025329
1.684000	-0.002367	0.025329
1.685000	-0.003349	0.025330
1.686000	-0.004093	0.025330
1.687000	-0.004521	0.025330
1.688000	-0.004617	0.025330
1.689000	-0.004609	0.025330
1.690000	-0.004817	0.025330
1.691000	-0.005256	0.025330
1.692000	-0.005598	0.025330
1.693000	-0.005605	0.025331
1.694000	-0.005353	0.025331
1.695000	-0.004946	0.025331
1.696000	-0.004342	0.025331
1.697000	-0.003499	0.025331
1.698000	-0.002482	0.025331
1.699000	-0.001432	0.025331
1.700000	-0.000456	0.025331
1.701000	0.000395	0.025331
1.702000	0.001221	0.025331
1.703000	0.002375	0.025332
1.704000	0.003931	0.025332
1.705000	0.005208	0.025332
1.706000	0.005586	0.025332
1.707000	0.005193	0.025332
1.708000	0.004404	0.025332
1.709000	0.003339	0.025332
1.710000	0.001978	0.025332
1.711000	0.000438	0.025332
1.712000	-0.001035	0.025332
1.713000	-0.002232	0.025332
1.714000	-0.003163	0.025332
1.715000	-0.004048	0.025332
1.716000	-0.005082	0.025333
1.717000	-0.006290	0.025333
1.718000	-0.007497	0.025333
1.719000	-0.008349	0.025333
1.720000	-0.008597	0.025333
1.721000	-0.008491	0.025333
1.722000	-0.008552	0.025333
1.723000	-0.008940	0.025333
1.724000	-0.009390	0.025333
1.725000	-0.009580	0.025333
1.726000	-0.009368	0.025333
1.727000	-0.008832	0.025333
1.728000	-0.008128	0.025333
1.729000	-0.007350	0.025333
1.730000	-0.006517	0.025333
1.731000	-0.005628	0.025333
1.732000	-0.004697	0.025333
1.733000	-0.003738	0.025333
1.734000	-0.002930	0.025334
1.735000	-0.002646	0.025334
1.736000	-0.003003	0.025334
1.737000	-0.003673	0.025334
1.738000	-0.004227	0.025334
1.739000	-0.004344	0.025334
1.740000	-0.003846	0.025334
1.741000	-0.002812	0.025334
1.742000	-0.001689	0.025334
1.743000	-0.000975	0.025334
1.744000	-0.000821	0.025334
1.745000	-0.001034	0.025334
1.746000	-0.001202	0.025334
1.747000	-0.000996	0.025334
1.748000	-0.000509	0.025334
1.749000	-0.000086	0.025334
1.750000	0.000109	0.025334
1.751000	0.000191	0.025334
1.752000	0.000345	0.025334
1.753000	0.000643	0.025334
1.754000	0.001131	0.025334
1.755000	0.001972	0.025334
1.756000	0.003293	0.025334
1.757000	0.004894	0.025335
1.758000	0.006287	0.025335
1.759000	0.007149	0.025335
1.760000	0.007538	0.025335
1.761000	0.007704	0.025335
1.762000	0.007905	0.025335
1.763000	0.008271	0.025335
1.764000	0.008768	0.025335
1.765000	0.009296	0.025335
1.766000	0.009784	0.025335
1.767000	0.010291	0.025335
1.768000	0.011100	0.025335
1.769000	0.012369	0.025335
1.770000	0.013683	0.025335
1.771000	0.014643	0.025335
1.772000	0.015409	0.025335
1.773000	0.016216	0.025335
1.774000	0.016923	0.025335
1.775000	0.017252	0.025335
1.776000	0.017159	0.025335
1.777000	0.016824	0.025335
1.778000	0.016453	0.025335
1.779000	0.016222	0.025335
1.780000	0.016267	0.025335
1.781000	0.016634	0.025336
1.782000	0.017216	0.025336
1.783000	0.017807	0.025336
1.784000	0.018318	0.025336
1.785000	0.018716	0.025336
1.786000	0.018770	0.025336
1.787000	0.018274	0.025336
1.788000	0.017395	0.025336
1.789000	0.016564	0.025336
1.790000	0.016131	0.025336
1.791000	0.016197	0.025336
1.792000	0.016745	0.025336
1.793000	0.017704	0.025336
1.794000	0.018933	0.025336
1.795000	0.020322	0.025337
1.796000	0.021697	0.025337
1.797000	0.022780	0.025337
1.798000	0.023423	0.025337
1.799000	0.023669	0.025337
1.800000	0.023681	0.025337
1.801000	0.023611	0.025337
1.802000	0.023504	0.025337
1.803000	0.023451	0.025337
1.804000	0.023600	0.025337
1.805000	0.023840	0.025337
1.806000	0.023766	0.025337
1.807000	0.023096	0.025337
1.808000	0.021929	0.025338
1.809000	0.020652	0.025338
1.810000	0.019730	0.025338
1.811000	0.019328	0.025338
1.812000	0.019168	0.025338
1.813000	0.018948	0.025338
1.814000	0.018646	0.025338
1.815000	0.018415	0.025338
1.816000	0.018357	0.025338
1.817000	0.018422	0.025338
1.818000	0.018507	0.025338
1.819000	0.018599	0.025338
1.820000	0.018852	0.025339
1.821000	0.019539	0.025339
1.822000	0.020636	0.025339
1.823000	0.021613	0.025339
1.824000	0.021994	0.025339
1.825000	0.021795	0.025339
1.826000	0.021268	0.025339
1.827000	0.020626	0.025339
1.828000	0.020104	0.025339
1.829000	0.019935	0.025339
1.830000	0.020027	0.025339
1.831000	0.020014	0.025339
1.832000	0.019781	0.025339
1.833000	0.019480	0.025339
1.834000	0.019146	0.025340
1.835000	0.018702	0.025340
1.836000	0.018144	0.025340
1.837000	0.017513	0.025340
1.838000	0.016895	0.025340
1.839000	0.016479	0.025340
1.840000	0.016457	0.025340
1.841000	0.016814	0.025340
1.842000	0.017298	0.025340
1.843000	0.017680	0.025340
1.844000	0.017967	0.025340
1.845000	0.018443	0.025341
1.846000	0.019529	0.025341
1.847000	0.021265	0.025341
1.848000	0.022932	0.025341
1.849000	0.023712	0.025341
1.850000	0.023611	0.025341
1.851000	0.023342	0.025341
1.852000	0.023507	0.025341
1.853000	0.024117	0.025341
1.854000	0.024859	0.025341
1.855000	0.025584	0.025341
1.856000	0.026351	0.025342
1.857000	0.027103	0.025342
1.858000	0.027607	0.025342
1.859000	0.027772	0.025342
1.860000	0.027720	0.025342
1.861000	0.027608	0.025342
1.862000	0.027600	0.025342
1.863000	0.027766	0.025342
1.864000	0.027958	0.025342
1.865000	0.027998	0.025342
1.866000	0.027908	0.025342
1.867000	0.027877	0.025342
1.868000	0.028057	0.025343
1.869000	0.028413	0.025343
1.870000	0.028909	0.025343
1.871000	0.029577	0.025343
1.872000	0.030365	0.025343
1.873000	0.031252	0.025343
1.874000	0.032287	0.025343
1.875000	0.033325	0.025343
1.876000	0.034069	0.025343
1.877000	0.034315	0.025343
1.878000	0.034083	0.025343
1.879000	0.033576	0.025343
1.880000	0.033076	0.025343
1.881000	0.032815	0.025343
1.882000	0.032794	0.025344
1.883000	0.032726	0.025344
1.884000	0.032310	0.025344
1.885000	0.031443	0.025344
1.886000	0.030228	0.025344
1.887000	0.028849	0.025344
1.888000	0.027442	0.025344
1.889000	0.026195	0.025344
1.890000	0.025311	0.025344
1.891000	0.024731	0.025344
1.892000	0.024177	0.025344
1.893000	0.023427	0.025344
1.894000	0.022467	0.025344
1.895000	0.021503	0.025344
1.896000	0.020731	0.025344
1.897000	0.020117	0.025344
1.898000	0.019605	0.025344
1.899000	0.019338	0.025344
1.900000	0.019425	0.025344
1.901000	0.019710	0.025344
1.902000	0.019921	0.025344
1.903000	0.019896	0.025344
1.904000	0.019661	0.025344
1.905000	0.019384	0.025345
1.906000	0.019175	0.025345
1.907000	0.019054	0.025345
1.908000	0.019082	0.025345
1.909000	0.019282	0.025345
1.910000	0.019551	0.025345
1.911000	0.019841	0.025345
1.912000	0.020217	0.025345
1.913000	0.020708	0.025345
1.914000	0.021430	0.025345
1.915000	0.022651	0.025345
1.916000	0.024269	0.025345
1.917000	0.025686	0.025345
1.918000	0.026498	0.025345
1.919000	0.026771	0.025345
1.920000	0.026732	0.025345
1.921000	0.026578	0.025345
1.922000	0.026447	0.025345
1.923000	0.026473	0.025345
1.924000	0.026895	0.025345
1.925000	0.027853	0.025345
1.926000	0.029011	0.025345
1.927000	0.029915	0.025345
1.928000	0.030428	0.025345
1.929000	0.030547	0.025345
1.930000	0.030336	0.025345
1.931000	0.029920	0.025345
1.932000	0.029360	0.025345
1.933000	0.028730	0.025345
1.934000	0.028194	0.025345
1.935000	0.027864	0.025345
1.936000	0.027694	0.025345
1.937000	0.027633	0.025345
1.938000	0.027630	0.025345
1.939000	0.027459	0.025345
1.940000	0.026822	0.025345
1.941000	0.025645	0.025345
1.942000	0.024139	0.025345
1.943000	0.022613	0.025345
1.944000	0.021258	0.025345
1.945000	0.020139	0.025345
1.946000	0.019321	0.025345
1.947000	0.018861	0.025345
1.948000	0.018767	0.025345
1.949000	0.019083	0.025345
1.950000	0.019765	0.025345
1.951000	0.020588	0.025345
1.952000	0.021398	0.025345
1.953000	0.022196	0.025345
1.954000	0.023068	0.025345
1.955000	0.024174	0.025345
1.956000	0.025662	0.025345
1.957000	0.027397	0.025345
1.958000	0.028858	0.025345
1.959000	0.029621	0.025345
1.960000	0.029744	0.025345
1.961000	0.029681	0.025345
1.962000	0.029810	0.025345
1.963000	0.029967	0.025345
1.964000	0.029801	0.025345
1.965000	0.029244	0.025345
1.966000	0.028369	0.025345
1.967000	0.027248	0.025345
1.968000	0.025957	0.025345
1.969000	0.024598	0.025345
1.970000	0.023414	0.025345
1.971000	0.022818	0.025345
1.972000	0.022916	0.025345
1.973000	0.023145	0.025345
1.974000	0.022883	0.025345
1.975000	0.022113	0.025345
1.976000	0.021274	0.025345
1.977000	0.020748	0.025345
1.978000	0.020561	0.025345
1.979000	0.020525	0.025345
1.980000	0.020599	0.025345
1.981000	0.020886	0.025345
1.982000	0.021167	0.025345
1.983000	0.020958	0.025345
1.984000	0.020133	0.025345
1.985000	0.018953	0.025345
1.986000	0.017729	0.025345
1.987000	0.016734	0.025345
1.988000	0.016103	0.025345
1.989000	0.015743	0.025345
1.990000	0.015477	0.025345
1.991000	0.015195	0.025345
1.992000	0.014821	0.025345
1.993000	0.014356	0.025345
1.994000	0.013979	0.025345
1.995000	0.014001	0.025345
1.996000	0.014562	0.025344
1.997000	0.015442	0.025344
1.998000	0.016372	0.025344
1.999000	0.017076	0.025344
2.000000	0.017158	0.025344
2.001000	0.016562	0.025344
2.002000	0.015736	0.025344
2.003000	0.015136	0.025344
2.004000	0.014808	0.025344
2.005000	0.014501	0.025344
2.006000	0.014024	0.025344
2.007000	0.013346	0.025344
2.008000	0.012542	0.025344
2.009000	0.011795	0.025344
2.010000	0.011333	0.025344
2.011000	0.011193	0.025344
2.012000	0.011226	0.025344
2.013000	0.011418	0.025344
2.014000	0.011882	0.025344
2.015000	0.012423	0.025344
2.016000	0.012647	0.025344
2.017000	0.012633	0.025344
2.018000	0.012916	0.025344
2.019000	0.013697	0.025344
2.020000	0.014596	0.025344
2.021000	0.015163	0.025344
2.022000	0.015237	0.025344
2.023000	0.014932	0.025344
2.024000	0.014480	0.025344
2.025000	0.013990	0.025344
2.026000	0.013371	0.025344
2.027000	0.012596	0.025344
2.028000	0.011893	0.025344
2.029000	0.011609	0.025344
2.030000	0.011898	0.025344
2.031000	0.012663	0.025344
2.032000	0.013670	0.025344
2.033000	0.014625	0.025344
2.034000	0.015477	0.025344
2.035000	0.016550	0.025344
2.036000	0.018189	0.025344
2.037000	0.020527	0.025344
2.038000	0.023622	0.025344
2.039000	0.027454	0.025344
2.040000	0.031765	0.025344
2.041000	0.036201	0.025344
2.042000	0.040446	0.025344
2.043000	0.044192	0.025344
2.044000	0.047214	0.025344
2.045000	0.049352	0.025344
2.046000	0.050551	0.025344
2.047000	0.050992	0.025344
2.048000	0.050823	0.025344
2.049000	0.049910	0.025344
2.050000	0.048202	0.025344
2.051000	0.045988	0.025344
2.052000	0.043678	0.025344
2.053000	0.041449	0.025344
2.054000	0.039163	0.025344
2.055000	0.036675	0.025344
2.056000	0.034038	0.025344
2.057000	0.031426	0.025344
2.058000	0.029035	0.025344
2.059000	0.026989	0.025344
2.060000	0.025329	0.025344
2.061000	0.024123	0.025344
2.062000	0.023501	0.025344
2.063000	0.023588	0.025344
2.064000	0.024524	0.025344
2.065000	0.026285	0.025344
2.066000	0.028416	0.025344
2.067000	0.030280	0.025344
2.068000	0.031547	0.025344
2.069000	0.032271	0.025344
2.070000	0.032620	0.025344
2.071000	0.032657	0.025344
2.072000	0.032314	0.025344
2.073000	0.031525	0.025344
2.074000	0.030302	0.025344
2.075000	0.028622	0.025345
2.076000	0.026321	0.025345
2.077000	0.023319	0.025345
2.078000	0.019793	0.025345
2.079000	0.016052	0.025345
2.080000	0.012400	0.025345
2.081000	0.009077	0.025345
2.082000	0.006133	0.025345
2.083000	0.003488	0.025345
2.084000	0.001198	0.025345
2.085000	-0.000621	0.025345
2.086000	-0.002058	0.025345
2.087000	-0.003265	0.025345
2.088000	-0.004271	0.025345
2.089000	-0.005027	0.025345
2.090000	-0.005429	0.025345
2.091000	-0.005484	0.025345
2.092000	-0.005265	0.025346
2.093000	-0.004714	0.025346
2.094000	-0.004078	0.025346
2.095000	-0.003952	0.025346
2.096000	-0.004590	0.025346
2.097000	-0.005808	0.025346
2.098000	-0.007256	0.025346
2.099000	-0.008524	0.025346
2.100000	-0.009512	0.025346
2.101000	-0.010627	0.025346
2.102000	-0.012154	0.025346
2.103000	-0.013725	0.025346
2.104000	-0.014919	0.025346
2.105000	-0.015964	0.025346
2.106000	-0.017337	0.025346
2.107000	-0.019110	0.025346
2.108000	-0.020961	0.025346
2.109000	-0.022496	0.025347
2.110000	-0.023462	0.025347
2.111000	-0.023919	0.025347
2.112000	-0.024177	0.025347
2.113000	-0.024485	0.025347
2.114000	-0.024885	0.025347
2.115000	-0.025293	0.025347
2.116000	-0.025632	0.025347
2.117000	-0.025985	0.025347
2.118000	-0.026555	0.025347
2.119000	-0.027502	0.025347
2.120000	-0.028930	0.025347
2.121000	-0.030957	0.025347
2.122000	-0.033731	0.025347
2.123000	-0.037311	0.025348
2.124000	-0.041551	0.025348
2.125000	-0.046279	0.025348
2.126000	-0.051428	0.025348
2.127000	-0.056843	0.025348
2.128000	-0.062201	0.025348
2.129000	-0.066999	0.025348
2.130000	-0.070470	0.025348
2.131000	-0.071750	0.025348
2.132000	-0.070171	0.025348
2.133000	-0.065349	0.025348
2.134000	-0.057056	0.025348
2.135000	-0.044994	0.025348
2.136000	-0.028622	0.025349
2.137000	-0.007258	0.025349
2.138000	0.019583	0.025349
2.139000	0.052079	0.025349
2.140000	0.090252	0.025349
2.141000	0.134061	0.025349
2.142000	0.183341	0.025349
2.143000	0.237793	0.025349
2.144000	0.297074	0.025349
2.145000	0.360840	0.025349
2.146000	0.428894	0.025349
2.147000	0.501186	0.025349
2.148000	0.577225	0.025349
2.149000	0.655690	0.025349
2.150000	0.735056	0.025350
2.151000	0.814304	0.025350
2.152000	0.892704	0.025350
2.153000	0.969264	0.025350
2.154000	1.042755	0.025350
2.155000	1.111788	0.025350
2.156000	1.174568	0.025350
2.157000	1.228958	0.025350
2.158000	1.272710	0.025350
2.159000	1.303271	0.025350
2.160000	1.317702	0.025350
2.161000	1.313440	0.025350
2.162000	1.289242	0.025350
2.163000	1.245127	0.025350
2.164000	1.181694	0.025350
2.165000	1.099986	0.025350
2.166000	1.001481	0.025350
2.167000	0.887806	0.025350
2.168000	0.760777	0.025350
2.169000	0.622640	0.025350
2.170000	0.476130	0.025350
2.171000	0.324573	0.025351
2.172000	0.171759	0.025351
2.173000	0.021339	0.025351
2.174000	-0.123454	0.025351
2.175000	-0.259508	0.025351
2.176000	-0.383764	0.025351
2.177000	-0.493566	0.025351
2.178000	-0.587025	0.025351
2.179000	-0.663070	0.025351
2.180000	-0.721345	0.025351
2.181000	-0.762232	0.025351
2.182000	-0.786790	0.025351
2.183000	-0.796586	0.025351
2.184000	-0.793476	0.025351
2.185000	-0.779596	0.025351
2.186000	-0.757568	0.025351
2.187000	-0.730163	0.025351
2.188000	-0.699698	0.025351
2.189000	-0.667947	0.025351
2.190000	-0.636191	0.025351
2.191000	-0.605312	0.025351
2.192000	-0.575994	0.025351
2.193000	-0.548765	0.025351
2.194000	-0.524194	0.025351
2.195000	-0.502914	0.025351
2.196000	-0.485120	0.025351
2.197000	-0.470472	0.025351
2.198000	-0.458445	0.025351
2.199000	-0.448473	0.025351
2.200000	-0.440018	0.025351
2.201000	-0.432624	0.025351
2.202000	-0.425859	0.025351
2.203000	-0.419299	0.025351
2.204000	-0.412711	0.025351
2.205000	-0.405995	0.025351
2.206000	-0.399042	0.025351
2.207000	-0.391881	0.025351
2.208000	-0.384710	0.025351
2.209000	-0.377675	0.025351
2.210000	-0.370738	0.025351
2.211000	-0.363805	0.025350
2.212000	-0.356849	0.025350
2.213000	-0.349889	0.025350
2.214000	-0.342999	0.025350
2.215000	-0.336327	0.025350
2.216000	-0.330004	0.025350
2.217000	-0.324069	0.025350
2.218000	-0.318488	0.025350
2.219000	-0.313188	0.025350
2.220000	-0.308085	0.025350
2.221000	-0.303124	0.025350
2.222000	-0.298264	0.025350
2.223000	-0.293424	0.025350
2.224000	-0.288422	0.025350
2.225000	-0.283016	0.025350
2.226000	-0.277154	0.025350
2.227000	-0.270929	0.025350
2.228000	-0.264422	0.025350
2.229000	-0.257908	0.025350
2.230000	-0.251695	0.025350
2.231000	-0.245884	0.025350
2.232000	-0.240490	0.025349
2.233000	-0.235404	0.025349
2.234000	-0.230394	0.025349
2.235000	-0.225333	0.025349
2.236000	-0.220252	0.025349
2.237000	-0.215213	0.025349
2.238000	-0.210309	0.025349
2.239000	-0.205635	0.025349
2.240000	-0.201136	0.025349
2.241000	-0.196684	0.025349
2.242000	-0.192318	0.025349
2.243000	-0.188119	0.025349
2.244000	-0.184061	0.025349
2.245000	-0.180029	0.025349
2.246000	-0.175777	0.025349
2.247000	-0.171165	0.025349
2.248000	-0.166453	0.025349
2.249000	-0.162028	0.025349
2.250000	-0.157969	0.025349
2.251000	-0.154065	0.025349
2.252000	-0.150005	0.025349
2.253000	-0.145692	0.025349
2.254000	-0.141455	0.025349
2.255000	-0.137648	0.025349
2.256000	-0.134202	0.025350
2.257000	-0.130567	0.025350
2.258000	-0.126360	0.025350
2.259000	-0.122133	0.025350
2.260000	-0.118630	0.025350
2.261000	-0.115836	0.025350
2.262000	-0.113300	0.025350
2.263000	-0.110685	0.025350
2.264000	-0.107917	0.025350
2.265000	-0.105076	0.025350
2.266000	-0.102200	0.025350
2.267000	-0.099261	0.025350
2.268000	-0.096298	0.025350
2.269000	-0.093417	0.025350
2.270000	-0.090612	0.025350
2.271000	-0.087876	0.025350
2.272000	-0.085365	0.025350
2.273000	-0.083141	0.025350
2.274000	-0.081053	0.025350
2.275000	-0.079005	0.025350
2.276000	-0.076992	0.025350
2.277000	-0.074949	0.025350
2.278000	-0.072822	0.025351
2.279000	-0.070674	0.025351
2.280000	-0.068565	0.025351
2.281000	-0.066336	0.025351
2.282000	-0.063768	0.025351
2.283000	-0.060999	0.025351
2.284000	-0.058364	0.025351
2.285000	-0.055987	0.025351
2.286000	-0.053766	0.025351
2.287000	-0.051523	0.025351
2.288000	-0.049056	0.025351
2.289000	-0.046167	0.025351
2.290000	-0.042895	0.025351
2.291000	-0.039672	0.025351
2.292000	-0.036971	0.025351
2.293000	-0.034880	0.025351
2.294000	-0.033173	0.025351
2.295000	-0.031611	0.025351
2.296000	-0.030024	0.025352
2.297000	-0.028232	0.025352
2.298000	-0.026157	0.025352
2.299000	-0.024008	0.025352
2.300000	-0.022091	0.025352
2.301000	-0.020413	0.025352
2.302000	-0.018753	0.025352
2.303000	-0.016990	0.025352
2.304000	-0.015138	0.025352
2.305000	-0.013262	0.025352
2.306000	-0.011429	0.025352
2.307000	-0.009598	0.025352
2.308000	-0.007636	0.025352
2.309000	-0.005461	0.025352
2.310000	-0.003035	0.025352
2.311000	-0.000448	0.025352
2.312000	0.001966	0.025352
2.313000	0.004035	0.025353
2.314000	0.005954	0.025353
2.315000	0.007804	0.025353
2.316000	0.009410	0.025353
2.317000	0.010706	0.025353
2.318000	0.011826	0.025353
2.319000	0.012991	0.025353
2.320000	0.014388	0.025353
2.321000	0.016028	0.025353
2.322000	0.017830	0.025353
2.323000	0.019675	0.025353
2.324000	0.021341	0.025353
2.325000	0.022651	0.025353
2.326000	0.023737	0.025353
2.327000	0.024959	0.025354
2.328000	0.026511	0.025354
2.329000	0.028230	0.025354
2.330000	0.029745	0.025354
2.331000	0.030836	0.025354
2.332000	0.031650	0.025354
2.333000	0.032400	0.025354
2.334000	0.033188	0.025354
2.335000	0.034264	0.025354
2.336000	0.036002	0.025354
2.337000	0.038212	0.025354
2.338000	0.040024	0.025354
2.339000	0.040981	0.025354
2.340000	0.041453	0.025354
2.341000	0.041796	0.025354
2.342000	0.041998	0.025354
2.343000	0.042122	0.025355
2.344000	0.042421	0.025355
2.345000	0.042979	0.025355
2.346000	0.043624	0.025355
2.347000	0.044193	0.025355
2.348000	0.044628	0.025355
2.349000	0.044886	0.025355
2.350000	0.044964	0.025355
2.351000	0.044953	0.025355
2.352000	0.045029	0.025355
2.353000	0.045355	0.025355
2.354000	0.045949	0.025355
2.355000	0.046753	0.025355
2.356000	0.047754	0.025355
2.357000	0.048896	0.025355
2.358000	0.050131	0.025355
2.359000	0.051463	0.025355
2.360000	0.052765	0.025355
2.361000	0.053909	0.025355
2.362000	0.054981	0.025355
2.363000	0.056178	0.025355
2.364000	0.057636	0.025355
2.365000	0.059314	0.025355
2.366000	0.061042	0.025356
2.367000	0.062628	0.025356
2.368000	0.063853	0.025356
2.369000	0.064602	0.025356
2.370000	0.064957	0.025356
2.371000	0.065064	0.025356
2.372000	0.065080	0.025356
2.373000	0.065200	0.025356
2.374000	0.065583	0.025356
2.375000	0.066246	0.025356
2.376000	0.067114	0.025356
2.377000	0.068199	0.025356
2.378000	0.069445	0.025356
2.379000	0.070501	0.025356
2.380000	0.071085	0.025356
2.381000	0.071245	0.025356
2.382000	0.071189	0.025356
2.383000	0.071148	0.025356
2.384000	0.071311	0.025356
2.385000	0.071762	0.025356
2.386000	0.072408	0.025356
2.387000	0.072991	0.025356
2.388000	0.073307	0.025356
2.389000	0.073379	0.025356
2.390000	0.073406	0.025356
2.391000	0.073563	0.025356
2.392000	0.073840	0.025356
2.393000	0.074089	0.025356
2.394000	0.074281	0.025356
2.395000	0.074560	0.025356
2.396000	0.074973	0.025357
2.397000	0.075409	0.025357
2.398000	0.075799	0.025357
2.399000	0.076195	0.025357
2.400000	0.076668	0.025357
2.401000	0.077179	0.025357
2.402000	0.077872	0.025357
2.403000	0.079219	0.025357
2.404000	0.081083	0.025357
2.405000	0.082374	0.025357
2.406000	0.082353	0.025357
2.407000	0.081352	0.025357
2.408000	0.080127	0.025357
2.409000	0.079132	0.025357
2.410000	0.078366	0.025357
2.411000	0.077469	0.025357
2.412000	0.076077	0.025357
2.413000	0.074230	0.025357
2.414000	0.072279	0.025357
2.415000	0.070507	0.025357
2.416000	0.069039	0.025357
2.417000	0.067925	0.025357
2.418000	0.067117	0.025358
2.419000	0.066531	0.025358
2.420000	0.066116	0.025358
2.421000	0.065845	0.025358
2.422000	0.065687	0.025358
2.423000	0.065505	0.025358
2.424000	0.065216	0.025358
2.425000	0.065029	0.025358
2.426000	0.065159	0.025358
2.427000	0.065626	0.025358
2.428000	0.066430	0.025358
2.429000	0.067488	0.025358
2.430000	0.068517	0.025358
2.431000	0.069207	0.025358
2.432000	0.069461	0.025358
2.433000	0.069432	0.025358
2.434000	0.069293	0.025358
2.435000	0.069056	0.025358
2.436000	0.068686	0.025358
2.437000	0.068191	0.025358
2.438000	0.067615	0.025358
2.439000	0.067047	0.025358
2.440000	0.066571	0.025358
2.441000	0.066210	0.025358
2.442000	0.065925	0.025358
2.443000	0.065597	0.025358
2.444000	0.065089	0.025358
2.445000	0.064347	0.025358
2.446000	0.063380	0.025358
2.447000	0.062245	0.025358
2.448000	0.061041	0.025359
2.449000	0.059829	0.025359
2.450000	0.058604	0.025359
2.451000	0.057304	0.025359
2.452000	0.055855	0.025359
2.453000	0.054190	0.025359
2.454000	0.052290	0.025359
2.455000	0.050437	0.025359
2.456000	0.048987	0.025359
2.457000	0.047598	0.025359
2.458000	0.045579	0.025359
2.459000	0.042816	0.025359
2.460000	0.039709	0.025359
2.461000	0.036665	0.025359
2.462000	0.033822	0.025359
2.463000	0.031062	0.025359
2.464000	0.028341	0.025359
2.465000	0.025792	0.025359
2.466000	0.023355	0.025359
2.467000	0.020561	0.025359
2.468000	0.016915	0.025360
2.469000	0.012382	0.025360
2.470000	0.007352	0.025360
2.471000	0.002230	0.025360
2.472000	-0.002763	0.025360
2.473000	-0.007512	0.025360
2.474000	-0.011977	0.025360
2.475000	-0.016190	0.025360
2.476000	-0.020085	0.025360
2.477000	-0.023602	0.025360
2.478000	-0.026986	0.025360
2.479000	-0.030398	0.025360
2.480000	-0.033656	0.025360
2.481000	-0.036775	0.025360
2.482000	-0.040089	0.025360
2.483000	-0.043655	0.025360
2.484000	-0.047064	0.025360
2.485000	-0.050022	0.025361
2.486000	-0.052656	0.025361
2.487000	-0.055199	0.025361
2.488000	-0.057880	0.025361
2.489000	-0.060846	0.025361
2.490000	-0.064054	0.025361
2.491000	-0.067314	0.025361
2.492000	-0.070421	0.025361
2.493000	-0.073407	0.025361
2.494000	-0.076505	0.025361
2.495000	-0.079816	0.025361
2.496000	-0.083237	0.025361
2.497000	-0.086565	0.025361
2.498000	-0.089537	0.025361
2.499000	-0.091906	0.025361
2.500000	-0.093603	0.025362
2.501000	-0.094744	0.025362
2.502000	-0.095474	0.025362
2.503000	-0.095837	0.025362
2.504000	-0.095874	0.025362
2.505000	-0.095722	0.025362
2.506000	-0.095484	0.025362
2.507000	-0.095072	0.025362
2.508000	-0.094315	0.025362
2.509000	-0.093240	0.025362
2.510000	-0.092128	0.025362
2.511000	-0.091286	0.025362
2.512000	-0.090814	0.025362
2.513000	-0.090555	0.025362
2.514000	-0.090267	0.025362
2.515000	-0.089801	0.025363
2.516000	-0.089105	0.025363
2.517000	-0.088154	0.025363
2.518000	-0.086991	0.025363
2.519000	-0.085702	0.025363
2.520000	-0.084306	0.025363
2.521000	-0.082813	0.025363
2.522000	-0.081263	0.025363
2.523000	-0.079623	0.025363
2.524000	-0.077802	0.025363
2.525000	-0.075784	0.025363
2.526000	-0.073661	0.025363
2.527000	-0.071509	0.025363
2.528000	-0.069377	0.025363
2.529000	-0.067304	0.025363
2.530000	-0.065269	0.025363
2.531000	-0.063271	0.025363
2.532000	-0.061342	0.025364
2.533000	-0.059515	0.025364
2.534000	-0.057874	0.025364
2.535000	-0.056477	0.025364
2.536000	-0.055217	0.025364
2.537000	-0.053907	0.025364
2.538000	-0.052504	0.025364
2.539000	-0.051092	0.025364
2.540000	-0.049635	0.025364
2.541000	-0.047797	0.025364
2.542000	-0.045219	0.025364
2.543000	-0.042157	0.025364
2.544000	-0.039421	0.025364
2.545000	-0.037513	0.025364
2.546000	-0.036209	0.025364
2.547000	-0.034994	0.025364
2.548000	-0.033528	0.025364
2.549000	-0.031880	0.025364
2.550000	-0.030295	0.025364
2.551000	-0.028818	0.025364
2.552000	-0.027527	0.025364
2.553000	-0.026571	0.025364
2.554000	-0.026001	0.025364
2.555000	-0.025944	0.025364
2.556000	-0.026546	0.025364
2.557000	-0.027656	0.025364
2.558000	-0.028886	0.025364
2.559000	-0.029892	0.025364
2.560000	-0.030477	0.025364
2.561000	-0.030526	0.025364
2.562000	-0.030044	0.025364
2.563000	-0.029299	0.025364
2.564000	-0.028740	0.025364
2.565000	-0.028627	0.025364
2.566000	-0.028855	0.025364
2.567000	-0.029051	0.025364
2.568000	-0.028796	0.025364
2.569000	-0.027914	0.025364
2.570000	-0.026521	0.025364
2.571000	-0.024860	0.025364
2.572000	-0.023162	0.025364
2.573000	-0.021564	0.025364
2.574000	-0.020046	0.025364
2.575000	-0.018422	0.025364
2.576000	-0.016578	0.025364
2.577000	-0.014778	0.025364
2.578000	-0.013349	0.025364
2.579000	-0.012191	0.025364
2.580000	-0.010989	0.025364
2.581000	-0.009720	0.025364
2.582000	-0.008604	0.025364
2.583000	-0.007685	0.025364
2.584000	-0.006784	0.025364
2.585000	-0.005814	0.025364
2.586000	-0.004944	0.025364
2.587000	-0.004380	0.025364
2.588000	-0.004119	0.025364
2.589000	-0.004030	0.025364
2.590000	-0.003999	0.025364
2.591000	-0.004010	0.025364
2.592000	-0.004172	0.025364
2.593000	-0.004605	0.025364
2.594000	-0.005317	0.025364
2.595000	-0.006171	0.025364
2.596000	-0.006912	0.025364
2.597000	-0.007349	0.025364
2.598000	-0.007483	0.025364
2.599000	-0.007444	0.025364
2.600000	-0.007373	0.025364
2.601000	-0.007318	0.025364
2.602000	-0.007228	0.025364
2.603000	-0.007037	0.025364
2.604000	-0.006689	0.025364
2.605000	-0.006165	0.025364
2.606000	-0.005529	0.025364
2.607000	-0.004819	0.025364
2.608000	-0.003958	0.025364
2.609000	-0.002959	0.025364
2.610000	-0.002024	0.025364
2.611000	-0.001360	0.025364
2.612000	-0.001065	0.025364
2.613000	-0.001054	0.025364
2.614000	-0.001128	0.025364
2.615000	-0.001117	0.025364
2.616000	-0.000836	0.025364
2.617000	-0.000159	0.025364
2.618000	0.000810	0.025364
2.619000	0.001831	0.025364
2.620000	0.002838	0.025364
2.621000	0.003891	0.025364
2.622000	0.004781	0.025364
2.623000	0.005257	0.025364
2.624000	0.005397	0.025364
2.625000	0.005403	0.025364
2.626000	0.005533	0.025364
2.627000	0.006254	0.025364
2.628000	0.007656	0.025364
2.629000	0.008920	0.025364
2.630000	0.009153	0.025364
2.631000	0.008312	0.025364
2.632000	0.006932	0.025364
2.633000	0.005465	0.025363
2.634000	0.004046	0.025363
2.635000	0.002764	0.025363
2.636000	0.001791	0.025363
2.637000	0.001107	0.025363
2.638000	0.000391	0.025363
2.639000	-0.000620	0.025363
2.640000	-0.001866	0.025363
2.641000	-0.003076	0.025363
2.642000	-0.003905	0.025363
2.643000	-0.004120	0.025363
2.644000	-0.003948	0.025363
2.645000	-0.003917	0.025363
2.646000	-0.004123	0.025363
2.647000	-0.004217	0.025363
2.648000	-0.004036	0.025363
2.649000	-0.003707	0.025363
2.650000	-0.003360	0.025363
2.651000	-0.003068	0.025363
2.652000	-0.002871	0.025363
2.653000	-0.002751	0.025363
2.654000	-0.002662	0.025363
2.655000	-0.002592	0.025363
2.656000	-0.002558	0.025363
2.657000	-0.002628	0.025363
2.658000	-0.002913	0.025363
2.659000	-0.003471	0.025363
2.660000	-0.004229	0.025363
2.661000	-0.005049	0.025363
2.662000	-0.005862	0.025363
2.663000	-0.006621	0.025363
2.664000	-0.007172	0.025363
2.665000	-0.007341	0.025363
2.666000	-0.007120	0.025363
2.667000	-0.006676	0.025363
2.668000	-0.006240	0.025363
2.669000	-0.005924	0.025363
2.670000	-0.005602	0.025363
2.671000	-0.005144	0.025363
2.672000	-0.004679	0.025363
2.673000	-0.004431	0.025363
2.674000	-0.004437	0.025363
2.675000	-0.004482	0.025363
2.676000	-0.004330	0.025363
2.677000	-0.003885	0.025363
2.678000	-0.003141	0.025363
2.679000	-0.002189	0.025363
2.680000	-0.001212	0.025363
2.681000	-0.000354	0.025363
2.682000	0.000384	0.025363
2.683000	0.001117	0.025363
2.684000	0.001994	0.025363
2.685000	0.003029	0.025363
2.686000	0.004065	0.025363
2.687000	0.005023	0.025362
2.688000	0.006158	0.025362
2.689000	0.007674	0.025362
2.690000	0.009281	0.025362
2.691000	0.010559	0.025362
2.692000	0.011294	0.025362
2.693000	0.011543	0.025362
2.694000	0.011548	0.025362
2.695000	0.011412	0.025362
2.696000	0.011101	0.025362
2.697000	0.010704	0.025362
2.698000	0.010361	0.025362
2.699000	0.009990	0.025362
2.700000	0.009369	0.025362
2.701000	0.008447	0.025362
2.702000	0.007385	0.025362
2.703000	0.006422	0.025362
2.704000	0.005783	0.025362
2.705000	0.005611	0.025362
2.706000	0.005899	0.025362
2.707000	0.006400	0.025362
2.708000	0.006751	0.025362
2.709000	0.006831	0.025362
2.710000	0.006817	0.025362
2.711000	0.006997	0.025362
2.712000	0.007619	0.025362
2.713000	0.008716	0.025362
2.714000	0.010080	0.025362
2.715000	0.011445	0.025362
2.716000	0.012723	0.025362
2.717000	0.013954	0.025361
2.718000	0.015039	0.025361
2.719000	0.015802	0.025361
2.720000	0.016255	0.025361
2.721000	0.016513	0.025361
2.722000	0.016647	0.025361
2.723000	0.016690	0.025361
2.724000	0.016642	0.025361
2.725000	0.016568	0.025361
2.726000	0.016639	0.025361
2.727000	0.016948	0.025361
2.728000	0.017414	0.025361
2.729000	0.017975	0.025361
2.730000	0.018715	0.025361
2.731000	0.019728	0.025361
2.732000	0.021038	0.025361
2.733000	0.022472	0.025361
2.734000	0.023627	0.025361
2.735000	0.024233	0.025360
2.736000	0.024412	0.025360
2.737000	0.024645	0.025360
2.738000	0.025355	0.025360
2.739000	0.026325	0.025360
2.740000	0.026940	0.025360
2.741000	0.026899	0.025360
2.742000	0.026313	0.025360
2.743000	0.025448	0.025360
2.744000	0.024583	0.025360
2.745000	0.023951	0.025360
2.746000	0.023642	0.025360
2.747000	0.023457	0.025360
2.748000	0.023018	0.025360
2.749000	0.022098	0.025360
2.750000	0.020737	0.025359
2.751000	0.019157	0.025359
2.752000	0.017697	0.025359
2.753000	0.016731	0.025359
2.754000	0.016364	0.025359
2.755000	0.016361	0.025359
2.756000	0.016515	0.025359
2.757000	0.016764	0.025359
2.758000	0.017058	0.025359
2.759000	0.017342	0.025359
2.760000	0.017602	0.025359
2.761000	0.017902	0.025359
2.762000	0.018391	0.025359
2.763000	0.019170	0.025359
2.764000	0.020114	0.025359
2.765000	0.020938	0.025359
2.766000	0.021459	0.025359
2.767000	0.021794	0.025359
2.768000	0.022274	0.025359
2.769000	0.023084	0.025359
2.770000	0.024191	0.025359
2.771000	0.025544	0.025359
2.772000	0.026995	0.025359
2.773000	0.028276	0.025359
2.774000	0.029186	0.025359
2.775000	0.029673	0.025359
2.776000	0.029752	0.025359
2.777000	0.029402	0.025359
2.778000	0.028674	0.025359
2.779000	0.027762	0.025359
2.780000	0.026843	0.025359
2.781000	0.025920	0.025359
2.782000	0.024893	0.025359
2.783000	0.023751	0.025359
2.784000	0.022548	0.025359
2.785000	0.021385	0.025359
2.786000	0.020551	0.025359
2.787000	0.020307	0.025359
2.788000	0.020426	0.025359
2.789000	0.020355	0.025359
2.790000	0.019977	0.025359
2.791000	0.019677	0.025359
2.792000	0.019689	0.025359
2.793000	0.019981	0.025359
2.794000	0.020611	0.025359
2.795000	0.021710	0.025359
2.796000	0.023115	0.025359
2.797000	0.024416	0.025359
2.798000	0.025330	0.025359
2.799000	0.025833	0.025359
2.800000	0.026180	0.025359
2.801000	0.026738	0.025359
2.802000	0.027530	0.025359
2.803000	0.028235	0.025359
2.804000	0.028574	0.025359
2.805000	0.028448	0.025359
2.806000	0.027951	0.025359
2.807000	0.027382	0.025359
2.808000	0.027014	0.025359
2.809000	0.026919	0.025359
2.810000	0.027040	0.025359
2.811000	0.027196	0.025359
2.812000	0.027178	0.025359
2.813000	0.026993	0.025359
2.814000	0.026801	0.025359
2.815000	0.026708	0.025359
2.816000	0.026705	0.025359
2.817000	0.026692	0.025359
2.818000	0.026603	0.025359
2.819000	0.026510	0.025359
2.820000	0.026525	0.025359
2.821000	0.026672	0.025359
2.822000	0.026853	0.025359
2.823000	0.026911	0.025359
2.824000	0.026738	0.025359
2.825000	0.026338	0.025359
2.826000	0.025821	0.025359
2.827000	0.025350	0.025359
2.828000	0.025040	0.025359
2.829000	0.024867	0.025359
2.830000	0.024788	0.025359
2.831000	0.024833	0.025359
2.832000	0.024873	0.025359
2.833000	0.024572	0.025359
2.834000	0.023875	0.025359
2.835000	0.023189	0.025359
2.836000	0.022903	0.025359
2.837000	0.023082	0.025359
2.838000	0.023522	0.025359
2.839000	0.023840	0.025359
2.840000	0.023783	0.025359
2.841000	0.023499	0.025359
2.842000	0.023398	0.025359
2.843000	0.023768	0.025359
2.844000	0.024437	0.025359
2.845000	0.024968	0.025359
2.846000	0.025208	0.025360
2.847000	0.025474	0.025360
2.848000	0.025987	0.025360
2.849000	0.026324	0.025360
2.850000	0.025985	0.025360
2.851000	0.025129	0.025360
2.852000	0.024361	0.025360
2.853000	0.024084	0.025360
2.854000	0.024218	0.025360
2.855000	0.024459	0.025360
2.856000	0.024579	0.025360
2.857000	0.024485	0.025360
2.858000	0.024195	0.025360
2.859000	0.023755	0.025360
2.860000	0.023237	0.025360
2.861000	0.022780	0.025360
2.862000	0.022461	0.025360
2.863000	0.022243	0.025360
2.864000	0.022085	0.025360
2.865000	0.021890	0.025360
2.866000	0.021626	0.025360
2.867000	0.021580	0.025360
2.868000	0.022019	0.025360
2.869000	0.022649	0.025360
2.870000	0.022932	0.025360
2.871000	0.022782	0.025360
2.872000	0.022506	0.025360
2.873000	0.022376	0.025360
2.874000	0.022493	0.025360
2.875000	0.022805	0.025360
2.876000	0.023190	0.025360
2.877000	0.023590	0.025360
2.878000	0.023988	0.025360
2.879000	0.024231	0.025360
2.880000	0.024085	0.025360
2.881000	0.023523	0.025360
2.882000	0.022762	0.025360
2.883000	0.022162	0.025360
2.884000	0.022134	0.025360
2.885000	0.022740	0.025360
2.886000	0.023459	0.025360
2.887000	0.023706	0.025359
2.888000	0.023455	0.025359
2.889000	0.023048	0.025359
2.890000	0.022638	0.025359
2.891000	0.022199	0.025359
2.892000	0.021751	0.025359
2.893000	0.021407	0.025359
2.894000	0.021336	0.025359
2.895000	0.021524	0.025359
2.896000	0.021683	0.025359
2.897000	0.021592	0.025359
2.898000	0.021275	0.025359
2.899000	0.020838	0.025359
2.900000	0.020312	0.025359
2.901000	0.019726	0.025359
2.902000	0.019220	0.025359
2.903000	0.018891	0.025359
2.904000	0.018637	0.025359
2.905000	0.018315	0.025359
2.906000	0.017874	0.025359
2.907000	0.017376	0.025359
2.908000	0.016971	0.025359
2.909000	0.016759	0.025359
2.910000	0.016972	0.025358
2.911000	0.017822	0.025358
2.912000	0.018803	0.025358
2.913000	0.019183	0.025358
2.914000	0.018912	0.025358
2.915000	0.018307	0.025358
2.916000	0.017523	0.025358
2.917000	0.016626	0.025358
2.918000	0.015696	0.025358
2.919000	0.014820	0.025358
2.920000	0.014171	0.025358
2.921000	0.013895	0.025358
2.922000	0.013837	0.025358
2.923000	0.013707	0.025358
2.924000	0.013481	0.025358
2.925000	0.013254	0.025358
2.926000	0.012998	0.025358
2.927000	0.012707	0.025358
2.928000	0.012423	0.025358
2.929000	0.012132	0.025358
2.930000	0.011939	0.025358
2.931000	0.012131	0.025358
2.932000	0.012792	0.025358
2.933000	0.013555	0.025358
2.934000	0.013942	0.025358
2.935000	0.013804	0.025358
2.936000	0.013395	0.025358
2.937000	0.013145	0.025358
2.938000	0.013312	0.025358
2.939000	0.013904	0.025358
2.940000	0.015041	0.025358
2.941000	0.016752	0.025358
2.942000	0.018510	0.025358
2.943000	0.019805	0.025358
2.944000	0.020720	0.025358
2.945000	0.021599	0.025358
2.946000	0.022683	0.025359
2.947000	0.024141	0.025359
2.948000	0.026126	0.025359
2.949000	0.028689	0.025359
2.950000	0.031784	0.025359
2.951000	0.035333	0.025359
2.952000	0.039153	0.025359
2.953000	0.042819	0.025359
2.954000	0.045754	0.025359
2.955000	0.047676	0.025359
2.956000	0.048796	0.025359
2.957000	0.049407	0.025359
2.958000	0.049569	0.025359
2.959000	0.049332	0.025359
2.960000	0.048758	0.025359
2.961000	0.047799	0.025359
2.962000	0.046549	0.025359
2.963000	0.045192	0.025359
2.964000	0.043617	0.025359
2.965000	0.041609	0.025359
2.966000	0.039235	0.025359
2.967000	0.036819	0.025359
2.968000	0.034719	0.025359
2.969000	0.033179	0.025359
2.970000	0.032296	0.025359
2.971000	0.031974	0.025359
2.972000	0.031987	0.025359
2.973000	0.032211	0.025359
2.974000	0.032776	0.025359
2.975000	0.033853	0.025359
2.976000	0.035344	0.025359
2.977000	0.037001	0.025359
2.978000	0.038482	0.025359
2.979000	0.039331	0.025359
2.980000	0.039365	0.025359
2.981000	0.038785	0.025359
2.982000	0.037763	0.025359
2.983000	0.036269	0.025359
2.984000	0.034272	0.025359
2.985000	0.031764	0.025359
2.986000	0.028690	0.025359
2.987000	0.025054	0.025359
2.988000	0.020957	0.025359
2.989000	0.016581	0.025359
2.990000	0.012176	0.025359
2.991000	0.007898	0.025359
2.992000	0.003859	0.025359
2.993000	0.000280	0.025359
2.994000	-0.002575	0.025359
2.995000	-0.004557	0.025359
2.996000	-0.005788	0.025359
2.997000	-0.006629	0.025359
2.998000	-0.007227	0.025359
2.999000	-0.007253	0.025359
3.000000	-0.006536	0.025359
3.001000	-0.005523	0.025359
3.002000	-0.004628	0.025359
3.003000	-0.003849	0.025359
3.004000	-0.003197	0.025359
3.005000	-0.002847	0.025359
3.006000	-0.002880	0.025359
3.007000	-0.003199	0.025359
3.008000	-0.003573	0.025359
3.009000	-0.003821	0.025359
3.010000	-0.004166	0.025359
3.011000	-0.005142	0.025359
3.012000	-0.007042	0.025359
3.013000	-0.009609	0.025359
3.014000	-0.012286	0.025359
3.015000	-0.014683	0.025359
3.016000	-0.016687	0.025359
3.017000	-0.018345	0.025359
3.018000	-0.019873	0.025359
3.019000	-0.021533	0.025359
3.020000	-0.023300	0.025359
3.021000	-0.024828	0.025359
3.022000	-0.025906	0.025359
3.023000	-0.026725	0.025359
3.024000	-0.027507	0.025359
3.025000	-0.028249	0.025359
3.026000	-0.028915	0.025360
3.027000	-0.029589	0.025360
3.028000	-0.030422	0.025360
3.029000	-0.031481	0.025360
3.030000	-0.032644	0.025360
3.031000	-0.033978	0.025360
3.032000	-0.036059	0.025360
3.033000	-0.039360	0.025360
3.034000	-0.043741	0.025360
3.035000	-0.048809	0.025360
3.036000	-0.054146	0.025360
3.037000	-0.059250	0.025360
3.038000	-0.063751	0.025360
3.039000	-0.067487	0.025360
3.040000	-0.070146	0.025360
3.041000	-0.071038	0.025360
3.042000	-0.069312	0.025360
3.043000	-0.064264	0.025360
3.044000	-0.055409	0.025360
3.045000	-0.042356	0.025360
3.046000	-0.024702	0.025360
3.047000	-0.002212	0.025360
3.048000	0.025141	0.025360
3.049000	0.057525	0.025360
3.050000	0.095391	0.025360
3.051000	0.139217	0.025360
3.052000	0.189132	0.025360
3.053000	0.244771	0.025360
3.054000	0.305547	0.025360
3.055000	0.371038	0.025360
3.056000	0.441135	0.025360
3.057000	0.515678	0.025360
3.058000	0.593833	0.025360
3.059000	0.674114	0.025361
3.060000	0.755076	0.025361
3.061000	0.835749	0.025361
3.062000	0.915391	0.025361
3.063000	0.993043	0.025361
3.064000	1.067267	0.025361
3.065000	1.136091	0.025361
3.066000	1.197391	0.025361
3.067000	1.249255	0.025361
3.068000	1.289666	0.025361
3.069000	1.316103	0.025361
3.070000	1.325909	0.025361
3.071000	1.316938	0.025361
3.072000	1.287836	0.025361
3.073000	1.238152	0.025361
3.074000	1.168469	0.025361
3.075000	1.080381	0.025361
3.076000	0.976001	0.025361
3.077000	0.857294	0.025361
3.078000	0.726065	0.025361
3.079000	0.584679	0.025361
3.080000	0.436427	0.025361
3.081000	0.284999	0.025361
3.082000	0.133751	0.025361
3.083000	-0.014183	0.025362
3.084000	-0.155404	0.025362
3.085000	-0.286497	0.025362
3.086000	-0.404675	0.025362
3.087000	-0.507881	0.025362
3.088000	-0.594472	0.025362
3.089000	-0.663301	0.025362
3.090000	-0.714312	0.025362
3.091000	-0.748634	0.025362
3.092000	-0.767949	0.025362
3.093000	-0.774031	0.025362
3.094000	-0.768759	0.025362
3.095000	-0.754167	0.025362
3.096000	-0.732419	0.025362
3.097000	-0.705712	0.025362
3.098000	-0.676103	0.025362
3.099000	-0.645385	0.025362
3.100000	-0.614992	0.025362
3.101000	-0.585949	0.025362
3.102000	-0.558981	0.025362
3.103000	-0.534689	0.025362
3.104000	-0.513472	0.025362
3.105000	-0.495295	0.025362
3.106000	-0.479664	0.025362
3.107000	-0.465996	0.025362
3.108000	-0.454031	0.025362
3.109000	-0.443745	0.025362
3.110000	-0.434960	0.025362
3.111000	-0.427295	0.025362
3.112000	-0.420325	0.025362
3.113000	-0.413669	0.025362
3.114000	-0.407138	0.025362
3.115000	-0.400768	0.025362
3.116000	-0.394607	0.025362
3.117000	-0.388530	0.025362
3.118000	-0.382344	0.025362
3.119000	-0.376028	0.025362
3.120000	-0.369690	0.025362
3.121000	-0.363408	0.025362
3.122000	-0.357232	0.025362
3.123000	-0.351219	0.025362
3.124000	-0.345408	0.025362
3.125000	-0.339763	0.025362
3.126000	-0.334121	0.025362
3.127000	-0.328346	0.025362
3.128000	-0.322580	0.025362
3.129000	-0.317024	0.025362
3.130000	-0.311589	0.025362
3.131000	-0.306101	0.025362
3.132000	-0.300522	0.025362
3.133000	-0.294758	0.025362
3.134000	-0.288558	0.025362
3.135000	-0.281768	0.025362
3.136000	-0.274752	0.025362
3.137000	-0.268218	0.025362
3.138000	-0.262441	0.025362
3.139000	-0.257130	0.025362
3.140000	-0.251909	0.025362
3.141000	-0.246586	0.025362
3.142000	-0.241189	0.025362
3.143000	-0.235849	0.025362
3.144000	-0.230632	0.025362
3.145000	-0.225455	0.025362
3.146000	-0.220270	0.025362
3.147000	-0.215260	0.025362
3.148000	-0.210653	0.025362
3.149000	-0.206409	0.025362
3.150000	-0.202280	0.025362
3.151000	-0.198067	0.025362
3.152000	-0.193644	0.025362
3.153000	-0.188896	0.025362
3.154000	-0.183955	0.025362
3.155000	-0.179175	0.025362
3.156000	-0.174683	0.025362
3.157000	-0.170431	0.025362
3.158000	-0.166538	0.025362
3.159000	-0.163097	0.025362
3.160000	-0.159943	0.025362
3.161000	-0.156816	0.025362
3.162000	-0.153491	0.025362
3.163000	-0.149857	0.025362
3.164000	-0.146060	0.025362
3.165000	-0.142402	0.025362
3.166000	-0.139047	0.025362
3.167000	-0.135833	0.025362
3.168000	-0.132556	0.025362
3.169000	-0.129346	0.025363
3.170000	-0.126354	0.025363
3.171000	-0.123406	0.025363
3.172000	-0.120135	0.025363
3.173000	-0.116290	0.025363
3.174000	-0.111963	0.025363
3.175000	-0.107613	0.025363
3.176000	-0.103825	0.025363
3.177000	-0.100829	0.025363
3.178000	-0.098279	0.025363
3.179000	-0.095541	0.025363
3.180000	-0.092270	0.025363
3.181000	-0.088835	0.025363
3.182000	-0.085871	0.025363
3.183000	-0.083490	0.025363
3.184000	-0.081316	0.025363
3.185000	-0.078949	0.025363
3.186000	-0.076155	0.025363
3.187000	-0.073015	0.025363
3.188000	-0.069786	0.025364
3.189000	-0.066611	0.025364
3.190000	-0.063715	0.025364
3.191000	-0.061374	0.025364
3.192000	-0.059459	0.025364
3.193000	-0.057489	0.025364
3.194000	-0.055084	0.025364
3.195000	-0.052180	0.025364
3.196000	-0.048931	0.025364
3.197000	-0.045538	0.025364
3.198000	-0.042239	0.025364
3.199000	-0.039362	0.025364
3.200000	-0.037239	0.025364
3.201000	-0.035924	0.025364
3.202000	-0.035057	0.025364
3.203000	-0.034198	0.025364
3.204000	-0.033193	0.025364
3.205000	-0.032103	0.025364
3.206000	-0.030905	0.025364
3.207000	-0.029465	0.025364
3.208000	-0.027796	0.025364
3.209000	-0.026044	0.025364
3.210000	-0.024326	0.025365
3.211000	-0.022736	0.025365
3.212000	-0.021292	0.025365
3.213000	-0.019874	0.025365
3.214000	-0.018331	0.025365
3.215000	-0.016604	0.025365
3.216000	-0.014719	0.025365
3.217000	-0.012694	0.025365
3.218000	-0.010498	0.025365
3.219000	-0.008171	0.025365
3.220000	-0.005876	0.025365
3.221000	-0.003742	0.025365
3.222000	-0.001703	0.025365
3.223000	0.000435	0.025365
3.224000	0.002765	0.025366
3.225000	0.005186	0.025366
3.226000	0.007467	0.025366
3.227000	0.009361	0.025366
3.228000	0.010776	0.025366
3.229000	0.011842	0.025366
3.230000	0.012763	0.025366
3.231000	0.013673	0.025366
3.232000	0.014672	0.025366
3.233000	0.015828	0.025366
3.234000	0.017187	0.025366
3.235000	0.018722	0.025366
3.236000	0.020275	0.025366
3.237000	0.021772	0.025366
3.238000	0.023166	0.025366
3.239000	0.024260	0.025367
3.240000	0.025050	0.025367
3.241000	0.025960	0.025367
3.242000	0.027643	0.025367
3.243000	0.030172	0.025367
3.244000	0.032703	0.025367
3.245000	0.034536	0.025367
3.246000	0.035845	0.025367
3.247000	0.037262	0.025367
3.248000	0.039096	0.025367
3.249000	0.041032	0.025367
3.250000	0.042714	0.025367
3.251000	0.044063	0.025367
3.252000	0.044990	0.025367
3.253000	0.045418	0.025367
3.254000	0.045547	0.025368
3.255000	0.045753	0.025368
3.256000	0.046131	0.025368
3.257000	0.046480	0.025368
3.258000	0.046760	0.025368
3.259000	0.047201	0.025368
3.260000	0.048152	0.025368
3.261000	0.049724	0.025368
3.262000	0.051454	0.025368
3.263000	0.052735	0.025368
3.264000	0.053430	0.025368
3.265000	0.053955	0.025368
3.266000	0.054792	0.025368
3.267000	0.056031	0.025368
3.268000	0.057641	0.025369
3.269000	0.059629	0.025369
3.270000	0.061727	0.025369
3.271000	0.063521	0.025369
3.272000	0.064888	0.025369
3.273000	0.065962	0.025369
3.274000	0.066797	0.025369
3.275000	0.067466	0.025369
3.276000	0.068172	0.025369
3.277000	0.068978	0.025369
3.278000	0.069695	0.025369
3.279000	0.070075	0.025369
3.280000	0.070143	0.025369
3.281000	0.070215	0.025369
3.282000	0.070519	0.025370
3.283000	0.071013	0.025370
3.284000	0.071530	0.025370
3.285000	0.071953	0.025370
3.286000	0.072248	0.025370
3.287000	0.072397	0.025370
3.288000	0.072465	0.025370
3.289000	0.072625	0.025370
3.290000	0.072948	0.025370
3.291000	0.073393	0.025370
3.292000	0.073925	0.025370
3.293000	0.074459	0.025370
3.294000	0.074847	0.025370
3.295000	0.075025	0.025370
3.296000	0.075022	0.025370
3.297000	0.074934	0.025370
3.298000	0.074954	0.025370
3.299000	0.075250	0.025371
3.300000	0.075836	0.025371
3.301000	0.076606	0.025371
3.302000	0.077434	0.025371
3.303000	0.078232	0.025371
3.304000	0.078942	0.025371
3.305000	0.079673	0.025371
3.306000	0.080709	0.025371
3.307000	0.082045	0.025371
3.308000	0.083257	0.025371
3.309000	0.084008	0.025371
3.310000	0.084221	0.025371
3.311000	0.083975	0.025371
3.312000	0.083482	0.025371
3.313000	0.083011	0.025372
3.314000	0.082711	0.025372
3.315000	0.082529	0.025372
3.316000	0.082349	0.025372
3.317000	0.082149	0.025372
3.318000	0.082033	0.025372
3.319000	0.082031	0.025372
3.320000	0.081953	0.025372
3.321000	0.081746	0.025372
3.322000	0.081419	0.025372
3.323000	0.080756	0.025372
3.324000	0.079685	0.025372
3.325000	0.078505	0.025372
3.326000	0.077693	0.025372
3.327000	0.077514	0.025373
3.328000	0.077744	0.025373
3.329000	0.077896	0.025373
3.330000	0.077605	0.025373
3.331000	0.076807	0.025373
3.332000	0.075737	0.025373
3.333000	0.074674	0.025373
3.334000	0.073787	0.025373
3.335000	0.073134	0.025373
3.336000	0.072565	0.025373
3.337000	0.071906	0.025373
3.338000	0.071388	0.025374
3.339000	0.071468	0.025374
3.340000	0.072160	0.025374
3.341000	0.073024	0.025374
3.342000	0.073614	0.025374
3.343000	0.073672	0.025374
3.344000	0.073325	0.025374
3.345000	0.073143	0.025374
3.346000	0.073538	0.025374
3.347000	0.074217	0.025374
3.348000	0.074610	0.025375
3.349000	0.074519	0.025375
3.350000	0.074081	0.025375
3.351000	0.073490	0.025375
3.352000	0.072900	0.025375
3.353000	0.072372	0.025375
3.354000	0.071779	0.025375
3.355000	0.070819	0.025375
3.356000	0.069225	0.025376
3.357000	0.067031	0.025376
3.358000	0.064498	0.025376
3.359000	0.061849	0.025376
3.360000	0.059243	0.025376
3.361000	0.056796	0.025376
3.362000	0.054506	0.025376
3.363000	0.052374	0.025376
3.364000	0.050379	0.025377
3.365000	0.048344	0.025377
3.366000	0.046083	0.025377
3.367000	0.043521	0.025377
3.368000	0.040685	0.025377
3.369000	0.037741	0.025377
3.370000	0.034980	0.025377
3.371000	0.032488	0.025377
3.372000	0.029908	0.025378
3.373000	0.026853	0.025378
3.374000	0.023355	0.025378
3.375000	0.019651	0.025378
3.376000	0.015857	0.025378
3.377000	0.011953	0.025378
3.378000	0.007889	0.025378
3.379000	0.003673	0.025378
3.380000	-0.000624	0.025379
3.381000	-0.004978	0.025379
3.382000	-0.009507	0.025379
3.383000	-0.014335	0.025379
3.384000	-0.019385	0.025379
3.385000	-0.024430	0.025379
3.386000	-0.029329	0.025379
3.387000	-0.034161	0.025380
3.388000	-0.039009	0.025380
3.389000	-0.043849	0.025380
3.390000	-0.048686	0.025380
3.391000	-0.053437	0.025380
3.392000	-0.057893	0.025380
3.393000	-0.061948	0.025381
3.394000	-0.065535	0.025381
3.395000	-0.068707	0.025381
3.396000	-0.071887	0.025381
3.397000	-0.075393	0.025381
3.398000	-0.079073	0.025381
3.399000	-0.082591	0.025381
3.400000	-0.085704	0.025381
3.401000	-0.088322	0.025382
3.402000	-0.090579	0.025382
3.403000	-0.092690	0.025382
3.404000	-0.094677	0.025382
3.405000	-0.096455	0.025382
3.406000	-0.098082	0.025382
3.407000	-0.099724	0.025382
3.408000	-0.101373	0.025383
3.409000	-0.102792	0.025383
3.410000	-0.103763	0.025383
3.411000	-0.104270	0.025383
3.412000	-0.104507	0.025383
3.413000	-0.104687	0.025383
3.414000	-0.104871	0.025383
3.415000	-0.105043	0.025383
3.416000	-0.105161	0.025383
3.417000	-0.105110	0.025384
3.418000	-0.104811	0.025384
3.419000	-0.104304	0.025384
3.420000	-0.103486	0.025384
3.421000	-0.102182	0.025384
3.422000	-0.100536	0.025384
3.423000	-0.098905	0.025384
3.424000	-0.097546	0.025384
3.425000	-0.096528	0.025385
3.426000	-0.095658	0.025385
3.427000	-0.094564	0.025385
3.428000	-0.093081	0.025385
3.429000	-0.091409	0.025385
3.430000	-0.089852	0.025385
3.431000	-0.088528	0.025385
3.432000	-0.087256	0.025385
3.433000	-0.085792	0.025386
3.434000	-0.084128	0.025386
3.435000	-0.082288	0.025386
3.436000	-0.080111	0.025386
3.437000	-0.077614	0.025386
3.438000	-0.075200	0.025386
3.439000	-0.073253	0.025386
3.440000	-0.071837	0.025386
3.441000	-0.070775	0.025386
3.442000	-0.069844	0.025387
3.443000	-0.068860	0.025387
3.444000	-0.067673	0.025387
3.445000	-0.066246	0.025387
3.446000	-0.064681	0.025387
3.447000	-0.063117	0.025387
3.448000	-0.061608	0.025387
3.449000	-0.060029	0.025387
3.450000	-0.058243	0.025387
3.451000	-0.056446	0.025387
3.452000	-0.055046	0.025387
3.453000	-0.054153	0.025387
3.454000	-0.053478	0.025387
3.455000	-0.052661	0.025388
3.456000	-0.051502	0.025388
3.457000	-0.050006	0.025388
3.458000	-0.048213	0.025388
3.459000	-0.046077	0.025388
3.460000	-0.043669	0.025388
3.461000	-0.041311	0.025388
3.462000	-0.039288	0.025388
3.463000	-0.037551	0.025388
3.464000	-0.035887	0.025388
3.465000	-0.034306	0.025388
3.466000	-0.032942	0.025388
3.467000	-0.031714	0.025388
3.468000	-0.030316	0.025388
3.469000	-0.028410	0.025388
3.470000	-0.026016	0.025388
3.471000	-0.023761	0.025389
3.472000	-0.022217	0.025389
3.473000	-0.021222	0.025389
3.474000	-0.020358	0.025389
3.475000	-0.019528	0.025389
3.476000	-0.018771	0.025389
3.477000	-0.018056	0.025389
3.478000	-0.017331	0.025389
3.479000	-0.016480	0.025389
3.480000	-0.015529	0.025389
3.481000	-0.014757	0.025389
3.482000	-0.014318	0.025389
3.483000	-0.014149	0.025389
3.484000	-0.014049	0.025389
3.485000	-0.013706	0.025389
3.486000	-0.013049	0.025389
3.487000	-0.012385	0.025389
3.488000	-0.011963	0.025389
3.489000	-0.011757	0.025389
3.490000	-0.011620	0.025389
3.491000	-0.011391	0.025389
3.492000	-0.010987	0.025389
3.493000	-0.010457	0.025389
3.494000	-0.009929	0.025389
3.495000	-0.009583	0.025389
3.496000	-0.009481	0.025389
3.497000	-0.009349	0.025389
3.498000	-0.008779	0.025389
3.499000	-0.007760	0.025389
3.500000	-0.006727	0.025389
3.501000	-0.006037	0.025389
3.502000	-0.005752	0.025389
3.503000	-0.005716	0.025389
3.504000	-0.005653	0.025389
3.505000	-0.005450	0.025389
3.506000	-0.005115	0.025389
3.507000	-0.004501	0.025389
3.508000	-0.003468	0.025389
3.509000	-0.002244	0.025389
3.510000	-0.001205	0.025389
3.511000	-0.000439	0.025389
3.512000	0.000153	0.025389
3.513000	0.000559	0.025389
3.514000	0.000727	0.025389
3.515000	0.000741	0.025389
3.516000	0.000855	0.025389
3.517000	0.001173	0.025389
3.518000	0.001340	0.025389
3.519000	0.001018	0.025389
3.520000	0.000336	0.025389
3.521000	-0.000315	0.025389
3.522000	-0.000410	0.025389
3.523000	0.000251	0.025389
3.524000	0.001092	0.025389
3.525000	0.001492	0.025389
3.526000	0.001363	0.025389
3.527000	0.000799	0.025389
3.528000	0.000029	0.025389
3.529000	-0.000466	0.025389
3.530000	-0.000418	0.025389
3.531000	-0.000172	0.025389
3.532000	-0.000261	0.025389
3.533000	-0.000825	0.025389
3.534000	-0.001553	0.025389
3.535000	-0.002017	0.025389
3.536000	-0.002049	0.025389
3.537000	-0.001898	0.025389
3.538000	-0.001988	0.025389
3.539000	-0.002459	0.025389
3.540000	-0.003118	0.025389
3.541000	-0.003689	0.025389
3.542000	-0.004031	0.025389
3.543000	-0.004178	0.025389
3.544000	-0.004119	0.025389
3.545000	-0.003779	0.025389
3.546000	-0.003255	0.025389
3.547000	-0.002777	0.025389
3.548000	-0.002441	0.025389
3.549000	-0.002127	0.025389
3.550000	-0.001687	0.025389
3.551000	-0.001121	0.025389
3.552000	-0.000485	0.025388
3.553000	0.000221	0.025388
3.554000	0.001039	0.025388
3.555000	0.001964	0.025388
3.556000	0.002841	0.025388
3.557000	0.003557	0.025388
3.558000	0.004176	0.025388
3.559000	0.004663	0.025388
3.560000	0.004831	0.025388
3.561000	0.004639	0.025388
3.562000	0.004230	0.025388
3.563000	0.003719	0.025388
3.564000	0.003179	0.025388
3.565000	0.002740	0.025388
3.566000	0.002550	0.025388
3.567000	0.002655	0.025388
3.568000	0.002888	0.025388
3.569000	0.003008	0.025388
3.570000	0.002949	0.025388
3.571000	0.002803	0.025388
3.572000	0.002681	0.025388
3.573000	0.002724	0.025387
3.574000	0.002938	0.025387
3.575000	0.003084	0.025387
3.576000	0.003042	0.025387
3.577000	0.003084	0.025387
3.578000	0.003526	0.025387
3.579000	0.004166	0.025387
3.580000	0.004576	0.025387
3.581000	0.004663	0.025387
3.582000	0.004526	0.025387
3.583000	0.004247	0.025387
3.584000	0.003959	0.025387
3.585000	0.003753	0.025387
3.586000	0.003584	0.025387
3.587000	0.003504	0.025387
3.588000	0.003670	0.025387
3.589000	0.004192	0.025387
3.590000	0.005061	0.025387
3.591000	0.005921	0.025387
3.592000	0.006261	0.025386
3.593000	0.006010	0.025386
3.594000	0.005538	0.025386
3.595000	0.005237	0.025386
3.596000	0.005307	0.025386
3.597000	0.005785	0.025386
3.598000	0.006739	0.025386
3.599000	0.008116	0.025386
3.600000	0.009470	0.025386
3.601000	0.010374	0.025386
3.602000	0.010734	0.025386
3.603000	0.010691	0.025386
3.604000	0.010572	0.025386
3.605000	0.010699	0.025386
3.606000	0.011111	0.025386
3.607000	0.011666	0.025386
3.608000	0.012400	0.025386
3.609000	0.013404	0.025386
3.610000	0.014516	0.025386
3.611000	0.015551	0.025386
3.612000	0.016335	0.025386
3.613000	0.016576	0.025386
3.614000	0.016343	0.025385
3.615000	0.016184	0.025385
3.616000	0.016313	0.025385
3.617000	0.016442	0.025385
3.618000	0.016548	0.025385
3.619000	0.016739	0.025385
3.620000	0.016739	0.025385
3.621000	0.016378	0.025385
3.622000	0.015898	0.025385
3.623000	0.015548	0.025385
3.624000	0.015403	0.025385
3.625000	0.015478	0.025385
3.626000	0.015685	0.025385
3.627000	0.015812	0.025385
3.628000	0.015817	0.025385
3.629000	0.015857	0.025385
3.630000	0.015971	0.025385
3.631000	0.016050	0.025385
3.632000	0.016115	0.025385
3.633000	0.016298	0.025385
3.634000	0.016618	0.025385
3.635000	0.016979	0.025385
3.636000	0.017316	0.025385
3.637000	0.017657	0.025384
3.638000	0.018058	0.025384
3.639000	0.018518	0.025384
3.640000	0.018969	0.025384
3.641000	0.019400	0.025384
3.642000	0.019959	0.025384
3.643000	0.020725	0.025384
3.644000	0.021474	0.025384
3.645000	0.021960	0.025384
3.646000	0.022209	0.025384
3.647000	0.022409	0.025384
3.648000	0.022695	0.025384
3.649000	0.023058	0.025384
3.650000	0.023381	0.025384
3.651000	0.023540	0.025384
3.652000	0.023536	0.025384
3.653000	0.023625	0.025384
3.654000	0.024055	0.025384
3.655000	0.024593	0.025384
3.656000	0.024779	0.025384
3.657000	0.024482	0.025384
3.658000	0.023892	0.025384
3.659000	0.023263	0.025384
3.660000	0.022733	0.025384
3.661000	0.022300	0.025384
3.662000	0.022022	0.025384
3.663000	0.021987	0.025384
3.664000	0.022023	0.025384
3.665000	0.021812	0.025384
3.666000	0.021300	0.025384
3.667000	0.020709	0.025384
3.668000	0.020313	0.025384
3.669000	0.020412	0.025384
3.670000	0.021192	0.025384
3.671000	0.022443	0.025384
3.672000	0.023739	0.025384
3.673000	0.024721	0.025384
3.674000	0.025191	0.025384
3.675000	0.025307	0.025384
3.676000	0.025466	0.025384
3.677000	0.025862	0.025384
3.678000	0.026374	0.025384
3.679000	0.026888	0.025384
3.680000	0.027417	0.025384
3.681000	0.027910	0.025384
3.682000	0.028212	0.025384
3.683000	0.028246	0.025384
3.684000	0.028107	0.025384
3.685000	0.028011	0.025384
3.686000	0.028049	0.025384
3.687000	0.028070	0.025384
3.688000	0.028043	0.025384
3.689000	0.028074	0.025384
3.690000	0.027999	0.025384
3.691000	0.027664	0.025384
3.692000	0.027231	0.025384
3.693000	0.026932	0.025384
3.694000	0.026871	0.025384
3.695000	0.027038	0.025384
3.696000	0.027341	0.025384
3.697000	0.027679	0.025384
3.698000	0.028083	0.025384
3.699000	0.028632	0.025384
3.700000	0.029338	0.025384
3.701000	0.030259	0.025384
3.702000	0.031286	0.025384
3.703000	0.031948	0.025383
3.704000	0.031880	0.025383
3.705000	0.031287	0.025383
3.706000	0.030656	0.025383
3.707000	0.030303	0.025383
3.708000	0.030350	0.025383
3.709000	0.030673	0.025383
3.710000	0.030860	0.025383
3.711000	0.030680	0.025383
3.712000	0.030224	0.025383
3.713000	0.029657	0.025383
3.714000	0.029114	0.025383
3.715000	0.028554	0.025383
3.716000	0.027787	0.025383
3.717000	0.026733	0.025383
3.718000	0.025477	0.025383
3.719000	0.024136	0.025383
3.720000	0.022837	0.025383
3.721000	0.021722	0.025383
3.722000	0.020953	0.025383
3.723000	0.020687	0.025383
3.724000	0.020853	0.025383
3.725000	0.021041	0.025383
3.726000	0.020908	0.025383
3.727000	0.020554	0.025383
3.728000	0.020189	0.025383
3.729000	0.019782	0.025383
3.730000	0.019294	0.025383
3.731000	0.018873	0.025383
3.732000	0.018662	0.025382
3.733000	0.018641	0.025382
3.734000	0.018693	0.025382
3.735000	0.018732	0.025382
3.736000	0.018742	0.025382
3.737000	0.018716	0.025382
3.738000	0.018656	0.025382
3.739000	0.018596	0.025382
3.740000	0.018571	0.025382
3.741000	0.018614	0.025382
3.742000	0.018806	0.025382
3.743000	0.019180	0.025382
3.744000	0.019635	0.025382
3.745000	0.020029	0.025382
3.746000	0.020330	0.025382
3.747000	0.020703	0.025382
3.748000	0.021367	0.025382
3.749000	0.022296	0.025382
3.750000	0.023308	0.025382
3.751000	0.024313	0.025382
3.752000	0.025185	0.025382
3.753000	0.025703	0.025382
3.754000	0.025814	0.025382
3.755000	0.025671	0.025382
3.756000	0.025471	0.025382
3.757000	0.025401	0.025382
3.758000	0.025540	0.025382
3.759000	0.025731	0.025382
3.760000	0.025782	0.025382
3.761000	0.025699	0.025382
3.762000	0.025491	0.025382
3.763000	0.025071	0.025382
3.764000	0.024507	0.025382
3.765000	0.024054	0.025382
3.766000	0.023938	0.025382
3.767000	0.024220	0.025382
3.768000	0.024817	0.025382
3.769000	0.025504	0.025382
3.770000	0.026084	0.025382
3.771000	0.026569	0.025382
3.772000	0.027035	0.025382
3.773000	0.027510	0.025381
3.774000	0.028154	0.025381
3.775000	0.029183	0.025381
3.776000	0.030387	0.025381
3.777000	0.031165	0.025381
3.778000	0.031175	0.025381
3.779000	0.030625	0.025381
3.780000	0.029870	0.025381
3.781000	0.029007	0.025381
3.782000	0.027985	0.025381
3.783000	0.026877	0.025381
3.784000	0.025872	0.025381
3.785000	0.025110	0.025381
3.786000	0.024559	0.025381
3.787000	0.024101	0.025381
3.788000	0.023614	0.025381
3.789000	0.022927	0.025381
3.790000	0.021896	0.025381
3.791000	0.020621	0.025381
3.792000	0.019532	0.025381
3.793000	0.018982	0.025381
3.794000	0.018821	0.025381
3.795000	0.018750	0.025381
3.796000	0.018716	0.025381
3.797000	0.018789	0.025381
3.798000	0.018990	0.025381
3.799000	0.019257	0.025381
3.800000	0.019483	0.025381
3.801000	0.019624	0.025381
3.802000	0.019682	0.025381
3.803000	0.019612	0.025381
3.804000	0.019454	0.025381
3.805000	0.019363	0.025381
3.806000	0.019327	0.025381
3.807000	0.019165	0.025381
3.808000	0.018862	0.025381
3.809000	0.018566	0.025381
3.810000	0.018369	0.025381
3.811000	0.018314	0.025381
3.812000	0.018394	0.025381
3.813000	0.018450	0.025381
3.814000	0.018333	0.025381
3.815000	0.018058	0.025381
3.816000	0.017727	0.025381
3.817000	0.017416	0.025381
3.818000	0.017181	0.025381
3.819000	0.017074	0.025381
3.820000	0.017137	0.025381
3.821000	0.017365	0.025381
3.822000	0.017673	0.025381
3.823000	0.017965	0.025381
3.824000	0.018224	0.025381
3.825000	0.018512	0.025381
3.826000	0.018925	0.025381
3.827000	0.019459	0.025381
3.828000	0.020003	0.025381
3.829000	0.020476	0.025381
3.830000	0.020796	0.025381
3.831000	0.020838	0.025381
3.832000	0.020645	0.025381
3.833000	0.020520	0.025381
3.834000	0.020662	0.025381
3.835000	0.020889	0.025381
3.836000	0.020911	0.025381
3.837000	0.020605	0.025381
3.838000	0.020002	0.025381
3.839000	0.019268	0.025381
3.840000	0.018730	0.025381
3.841000	0.018714	0.025381
3.842000	0.019048	0.025381
3.843000	0.019098	0.025381
3.844000	0.018532	0.025381
3.845000	0.017578	0.025381
3.846000	0.016672	0.025381
3.847000	0.016156	0.025381
3.848000	0.016083	0.025381
3.849000	0.016177	0.025381
3.850000	0.016117	0.025381
3.851000	0.015819	0.025381
3.852000	0.015382	0.025381
3.853000	0.014904	0.025381
3.854000	0.014418	0.025381
3.855000	0.013881	0.025381
3.856000	0.013401	0.025381
3.857000	0.013510	0.025381
3.858000	0.014421	0.025381
3.859000	0.015363	0.025381
3.860000	0.015614	0.025381
3.861000	0.015414	0.025381
3.862000	0.015331	0.025381
3.863000	0.015506	0.025381
3.864000	0.015849	0.025381
3.865000	0.016408	0.025381
3.866000	0.017293	0.025381
3.867000	0.018551	0.025381
3.868000	0.020190	0.025381
3.869000	0.022206	0.025381
3.870000	0.024483	0.025381
3.871000	0.026797	0.025381
3.872000	0.028972	0.025381
3.873000	0.030933	0.025381
3.874000	0.032599	0.025381
3.875000	0.033871	0.025381
3.876000	0.034775	0.025381
3.877000	0.035406	0.025381
3.878000	0.035718	0.025381
3.879000	0.035654	0.025381
3.880000	0.035409	0.025381
3.881000	0.035279	0.025381
3.882000	0.035290	0.025381
3.883000	0.035203	0.025381
3.884000	0.034824	0.025381
3.885000	0.034149	0.025381
3.886000	0.033331	0.025381
3.887000	0.032588	0.025381
3.888000	0.032078	0.025381
3.889000	0.031797	0.025381
3.890000	0.031656	0.025381
3.891000	0.031667	0.025381
3.892000	0.031987	0.025381
3.893000	0.032800	0.025381
3.894000	0.034172	0.025381
3.895000	0.035923	0.025381
3.896000	0.037723	0.025381
3.897000	0.039363	0.025381
3.898000	0.040682	0.025381
3.899000	0.041460	0.025381
3.900000	0.041622	0.025381
3.901000	0.041224	0.025381
3.902000	0.040269	0.025381
3.903000	0.038776	0.025381
3.904000	0.036732	0.025381
3.905000	0.033975	0.025381
3.906000	0.030390	0.025381
3.907000	0.026140	0.025381
3.908000	0.021682	0.025381
3.909000	0.017566	0.025381
3.910000	0.013928	0.025381
3.911000	0.010416	0.025381
3.912000	0.006834	0.025381
3.913000	0.003450	0.025381
3.914000	0.000827	0.025381
3.915000	-0.000714	0.025381
3.916000	-0.001582	0.025381
3.917000	-0.002452	0.025381
3.918000	-0.003519	0.025381
3.919000	-0.004479	0.025381
3.920000	-0.005008	0.025381
3.921000	-0.004966	0.025381
3.922000	-0.004386	0.025381
3.923000	-0.003619	0.025381
3.924000	-0.003153	0.025381
3.925000	-0.003150	0.025381
3.926000	-0.003463	0.025381
3.927000	-0.003980	0.025381
3.928000	-0.004850	0.025381
3.929000	-0.006327	0.025381
3.930000	-0.008322	0.025381
3.931000	-0.010473	0.025381
3.932000	-0.012623	0.025381
3.933000	-0.014853	0.025381
3.934000	-0.017186	0.025381
3.935000	-0.019422	0.025381
3.936000	-0.021291	0.025381
3.937000	-0.022804	0.025382
3.938000	-0.024227	0.025382
3.939000	-0.025674	0.025382
3.940000	-0.026972	0.025382
3.941000	-0.027798	0.025382
3.942000	-0.027910	0.025382
3.943000	-0.027388	0.025382
3.944000	-0.026556	0.025382
3.945000	-0.025539	0.025382
3.946000	-0.024428	0.025382
3.947000	-0.023707	0.025382
3.948000	-0.023769	0.025382
3.949000	-0.024626	0.025382
3.950000	-0.026138	0.025382
3.951000	-0.028053	0.025382
3.952000	-0.030179	0.025382
3.953000	-0.032573	0.025382
3.954000	-0.035477	0.025382
3.955000	-0.039365	0.025382
3.956000	-0.044640	0.025382
3.957000	-0.051007	0.025382
3.958000	-0.057542	0.025382
3.959000	-0.063171	0.025382
3.960000	-0.066868	0.025382
3.961000	-0.067904	0.025382
3.962000	-0.066054	0.025382
3.963000	-0.061273	0.025383
3.964000	-0.053299	0.025383
3.965000	-0.041580	0.025383
3.966000	-0.025369	0.025383
3.967000	-0.003895	0.025383
3.968000	0.023366	0.025383
3.969000	0.056599	0.025383
3.970000	0.095795	0.025383
3.971000	0.140848	0.025383
3.972000	0.191524	0.025383
3.973000	0.247506	0.025383
3.974000	0.308527	0.025383
3.975000	0.374442	0.025383
3.976000	0.445073	0.025383
3.977000	0.519834	0.025383
3.978000	0.597722	0.025384
3.979000	0.677651	0.025384
3.980000	0.758582	0.025384
3.981000	0.839460	0.025384
3.982000	0.919229	0.025384
3.983000	0.996729	0.025384
3.984000	1.070510	0.025384
3.985000	1.138798	0.025384
3.986000	1.199699	0.025384
3.987000	1.251254	0.025384
3.988000	1.291100	0.025384
3.989000	1.316432	0.025384
3.990000	1.324688	0.025384
3.991000	1.314217	0.025384
3.992000	1.284180	0.025384
3.993000	1.234206	0.025384
3.994000	1.164717	0.025384
3.995000	1.076991	0.025384
3.996000	0.972562	0.025384
3.997000	0.853328	0.025384
3.998000	0.721802	0.025384
3.999000	0.580643	0.025384
4.000000	0.432662	0.025384
4.001000	0.281090	0.025384
4.002000	0.129244	0.025384
4.003000	-0.019534	0.025384
4.004000	-0.161724	0.025384
4.005000	-0.294010	0.025384
4.006000	-0.413592	0.025384
4.007000	-0.518150	0.025384
4.008000	-0.605950	0.025384
4.009000	-0.676106	0.025384
4.010000	-0.728633	0.025384
4.011000	-0.764334	0.025384
4.012000	-0.784691	0.025384
4.013000	-0.791578	0.025384
4.014000	-0.786973	0.025384
4.015000	-0.772891	0.025384
4.016000	-0.751345	0.025384
4.017000	-0.724272	0.025384
4.018000	-0.693538	0.025384
4.019000	-0.661052	0.025384
4.020000	-0.628688	0.025384
4.021000	-0.597850	0.025384
4.022000	-0.569281	0.025384
4.023000	-0.543259	0.025384
4.024000	-0.519737	0.025384
4.025000	-0.498463	0.025384
4.026000	-0.479428	0.025384
4.027000	-0.463012	0.025384
4.028000	-0.449330	0.025384
4.029000	-0.437976	0.025384
4.030000	-0.428489	0.025384
4.031000	-0.420464	0.025384
4.032000	-0.413453	0.025384
4.033000	-0.407052	0.025384
4.034000	-0.400898	0.025384
4.035000	-0.394665	0.025384
4.036000	-0.388221	0.025384
4.037000	-0.381649	0.025384
4.038000	-0.375075	0.025384
4.039000	-0.368651	0.025384
4.040000	-0.362587	0.025384
4.041000	-0.356941	0.025384
4.042000	-0.351520	0.025384
4.043000	-0.346098	0.025385
4.044000	-0.340572	0.025385
4.045000	-0.334903	0.025385
4.046000	-0.329046	0.025385
4.047000	-0.322957	0.025385
4.048000	-0.316718	0.025385
4.049000	-0.310547	0.025385
4.050000	-0.304604	0.025385
4.051000	-0.298908	0.025385
4.052000	-0.293368	0.025385
4.053000	-0.287817	0.025385
4.054000	-0.282102	0.025385
4.055000	-0.276204	0.025385
4.056000	-0.270223	0.025385
4.057000	-0.264353	0.025385
4.058000	-0.258870	0.025385
4.059000	-0.253899	0.025385
4.060000	-0.249250	0.025385
4.061000	-0.244638	0.025385
4.062000	-0.239942	0.025385
4.063000	-0.235191	0.025385
4.064000	-0.230538	0.025385
4.065000	-0.226191	0.025385
4.066000	-0.222235	0.025385
4.067000	-0.218618	0.025385
4.068000	-0.215200	0.025385
4.069000	-0.211715	0.025385
4.070000	-0.207905	0.025385
4.071000	-0.203771	0.025385
4.072000	-0.199538	0.025385
4.073000	-0.195311	0.025385
4.074000	-0.190962	0.025385
4.075000	-0.186361	0.025385
4.076000	-0.181590	0.025385
4.077000	-0.176828	0.025385
4.078000	-0.172142	0.025385
4.079000	-0.167454	0.025385
4.080000	-0.162600	0.025385
4.081000	-0.157507	0.025385
4.082000	-0.152339	0.025385
4.083000	-0.147258	0.025385
4.084000	-0.142322	0.025385
4.085000	-0.137634	0.025385
4.086000	-0.133221	0.025385
4.087000	-0.128972	0.025385
4.088000	-0.124791	0.025385
4.089000	-0.120676	0.025385
4.090000	-0.116742	0.025385
4.091000	-0.113100	0.025385
4.092000	-0.109611	0.025385
4.093000	-0.105928	0.025385
4.094000	-0.102075	0.025385
4.095000	-0.098593	0.025385
4.096000	-0.095795	0.025385
4.097000	-0.093423	0.025385
4.098000	-0.091114	0.025386
4.099000	-0.088720	0.025386
4.100000	-0.086218	0.025386
4.101000	-0.083576	0.025386
4.102000	-0.080786	0.025386
4.103000	-0.077952	0.025386
4.104000	-0.075247	0.025386
4.105000	-0.072753	0.025386
4.106000	-0.070474	0.025386
4.107000	-0.068452	0.025386
4.108000	-0.066490	0.025386
4.109000	-0.064082	0.025386
4.110000	-0.061126	0.025386
4.111000	-0.058118	0.025386
4.112000	-0.055445	0.025386
4.113000	-0.052850	0.025386
4.114000	-0.049694	0.025386
4.115000	-0.046033	0.025387
4.116000	-0.042664	0.025387
4.117000	-0.039956	0.025387
4.118000	-0.037688	0.025387
4.119000	-0.035687	0.025387
4.120000	-0.033958	0.025387
4.121000	-0.032461	0.025387
4.122000	-0.031045	0.025387
4.123000	-0.029576	0.025387
4.124000	-0.028076	0.025387
4.125000	-0.026664	0.025387
4.126000	-0.025410	0.025387
4.127000	-0.024316	0.025387
4.128000	-0.023507	0.025387
4.129000	-0.023202	0.025387
4.130000	-0.023338	0.025388
4.131000	-0.023567	0.025388
4.132000	-0.023563	0.025388
4.133000	-0.023174	0.025388
4.134000	-0.022402	0.025388
4.135000	-0.021289	0.025388
4.136000	-0.019858	0.025388
4.137000	-0.018176	0.025388
4.138000	-0.016321	0.025388
4.139000	-0.014245	0.025388
4.140000	-0.011967	0.025388
4.141000	-0.009666	0.025388
4.142000	-0.007432	0.025388
4.143000	-0.005205	0.025389
4.144000	-0.002861	0.025389
4.145000	-0.000239	0.025389
4.146000	0.002641	0.025389
4.147000	0.005422	0.025389
4.148000	0.007725	0.025389
4.149000	0.009547	0.025389
4.150000	0.011216	0.025389
4.151000	0.013003	0.025389
4.152000	0.014946	0.025389
4.153000	0.016992	0.025389
4.154000	0.019037	0.025389
4.155000	0.020942	0.025390
4.156000	0.022768	0.025390
4.157000	0.024643	0.025390
4.158000	0.026468	0.025390
4.159000	0.028178	0.025390
4.160000	0.029997	0.025390
4.161000	0.032039	0.025390
4.162000	0.034023	0.025390
4.163000	0.035679	0.025390
4.164000	0.037097	0.025390
4.165000	0.038465	0.025390
4.166000	0.039812	0.025390
4.167000	0.041129	0.025390
4.168000	0.042403	0.025390
4.169000	0.043509	0.025391
4.170000	0.044302	0.025391
4.171000	0.044761	0.025391
4.172000	0.044999	0.025391
4.173000	0.045193	0.025391
4.174000	0.045498	0.025391
4.175000	0.045981	0.025391
4.176000	0.046649	0.025391
4.177000	0.047393	0.025391
4.178000	0.047964	0.025391
4.179000	0.048252	0.025391
4.180000	0.048428	0.025391
4.181000	0.048792	0.025391
4.182000	0.049553	0.025391
4.183000	0.050720	0.025391
4.184000	0.052142	0.025391
4.185000	0.053620	0.025391
4.186000	0.055007	0.025391
4.187000	0.056294	0.025392
4.188000	0.057522	0.025392
4.189000	0.058634	0.025392
4.190000	0.059531	0.025392
4.191000	0.060209	0.025392
4.192000	0.060755	0.025392
4.193000	0.061390	0.025392
4.194000	0.062281	0.025392
4.195000	0.063274	0.025392
4.196000	0.064112	0.025392
4.197000	0.064734	0.025392
4.198000	0.065295	0.025392
4.199000	0.066124	0.025392
4.200000	0.067362	0.025392
4.201000	0.068657	0.025392
4.202000	0.069596	0.025392
4.203000	0.070269	0.025393
4.204000	0.071147	0.025393
4.205000	0.072583	0.025393
4.206000	0.074476	0.025393
4.207000	0.076359	0.025393
4.208000	0.077783	0.025393
4.209000	0.078626	0.025393
4.210000	0.079085	0.025393
4.211000	0.079505	0.025393
4.212000	0.080209	0.025393
4.213000	0.081249	0.025393
4.214000	0.082273	0.025393
4.215000	0.082793	0.025393
4.216000	0.082578	0.025393
4.217000	0.081760	0.025393
4.218000	0.080653	0.025393
4.219000	0.079516	0.025393
4.220000	0.078412	0.025393
4.221000	0.077379	0.025393
4.222000	0.076558	0.025393
4.223000	0.076027	0.025393
